Tiempo_s,ECG_original_V,ECG_preprocesado_V,Saturacion
0.0,3.29,0.5768008803335367,1
0.0020833333333333333,3.3,0.5907327560669776,1
0.004166666666666667,3.29,0.5846735958043715,1
0.00625,3.29,0.5886233520302986,1
0.008333333333333333,3.29,0.5925819769276138,1
0.010416666666666666,3.29,0.5965494223785553,1
0.0125,3.29,0.6005256399658658,1
0.014583333333333334,3.29,0.604510580973927,1
0.016666666666666666,3.29,0.608504196389902,1
0.01875,3.29,0.6125064369048941,1
0.020833333333333332,3.3,0.6265172529151105,1
0.022916666666666665,3.29,0.6205365945230424,1
0.025,3.29,0.6245644115386516,1
0.027083333333333334,3.29,0.6286006534805731,1
0.029166666666666667,3.29,0.6326452695773246,1
0.03125,3.29,0.6366982087685279,1
0.03333333333333333,3.29,0.6407594197061421,1
0.035416666666666666,3.29,0.6448288507557038,1
0.0375,3.29,0.6489064499975798,1
0.03958333333333333,3.29,0.6529921652282304,1
0.041666666666666664,3.3,0.6670859439614824,1
0.04375,3.3,0.671187733429814,1
0.04583333333333333,3.29,0.6652974805856492,1
0.04791666666666667,3.29,0.6694151321026585,1
0.05,3.29,0.6735406343770717,1
0.052083333333333336,3.29,0.6776739335289972,1
0.05416666666666667,3.29,0.6818149754037532,1
0.05625,3.29,0.6859637055732088,1
0.058333333333333334,3.29,0.6901200693371311,1
0.06041666666666667,3.29,0.6942840117245452,1
0.0625,3.29,0.6984554774951,1
0.06458333333333334,3.29,0.70263441114044,1
0.06666666666666667,3.29,0.7068207568855921,1
0.06875,3.29,0.7110144586903572,1
0.07083333333333333,3.29,0.7152154602507079,1
0.07291666666666667,3.29,0.7194237050001967,1
0.075,3.29,0.7236391361113734,1
0.07708333333333334,3.29,0.7278616964972078,1
0.07916666666666666,3.29,0.7320913288125204,1
0.08125,3.29,0.736327975455421,1
0.08333333333333333,3.29,0.7405715785687513,1
0.08541666666666667,3.29,0.7448220800415398,1
0.0875,3.29,0.7490794215104591,1
0.08958333333333333,3.3,0.7633435443612919,1
0.09166666666666666,3.29,0.7576143897304047,1
0.09375,3.29,0.7618918985062226,1
0.09583333333333334,3.29,0.7661760113307146,1
0.09791666666666667,3.29,0.7704666686008824,1
0.1,3.29,0.7747638104702551,1
0.10208333333333333,3.3,0.7890673768503921,1
0.10416666666666667,3.29,0.7833773074123904,1
0.10625,3.3,0.7976935415883932,1
0.10833333333333334,1.29,-1.2079839814268938,0
0.11041666666666666,1.29,-1.2036553226746751,0
0.1125,1.3,-1.189320543430548,0
0.11458333333333333,1.3,-1.1849797052029654,0
0.11666666666666667,1.3,-1.1806328697317012,0
0.11875,1.31,-1.166280098986319,0
0.12083333333333333,1.32,-1.151921455164626,0
0.12291666666666666,1.32,-1.147557000691131,0
0.125,1.33,-1.1331867982154935,0
0.12708333333333333,1.33,-1.1288109106109734,0
0.12916666666666668,1.34,-1.1144294009728741,0
0.13125,1.34,-1.1100423326169901,0
0.13333333333333333,1.35,-1.0956497690780487,0
0.13541666666666666,1.35,-1.091251774108146,0
0.1375,1.35,-1.0868484116751835,0
0.13958333333333334,1.36,-1.0724397459613038,0
0.14166666666666666,1.37,-1.0580258413613242,0
0.14375,1.37,-1.053606762481166,0
0.14583333333333334,1.38,-1.0391825741362843,0
0.14791666666666667,1.38,-1.0347533413500924,0
0.15,1.39,-1.0203191293523877,0
0.15208333333333332,1.4,-1.0058800035777806,0
0.15416666666666667,1.4,-1.0014360296641156,0
0.15625,1.41,-0.9869872734508947,0
0.15833333333333333,1.41,-0.9825338009777005,0
0.16041666666666668,1.42,-0.9680756784826166,0
0.1625,1.42,-0.9636129724006497,0
0.16458333333333333,1.42,-0.9591457493621518,0
0.16666666666666666,1.43,-0.9446740761912411,0
0.16875,1.43,-0.9401980199042215,0
0.17083333333333334,1.44,-0.9257176477080017,0
0.17291666666666666,1.46,-0.9012330269985153,0
0.175,1.46,-0.896744225359141,0
0.17708333333333334,1.48,-0.872251310559125,0
0.17916666666666667,1.48,-0.8677543505520012,0
0.18125,1.49,-0.8532534134740131,0
0.18333333333333332,1.49,-0.8487485676425344,0
0.18541666666666667,1.48,-0.8542398815544942,0
0.1875,1.47,-0.8597274238847994,0
0.18958333333333333,1.46,-0.8652112634847599,0
0.19166666666666668,1.44,-0.8806914693805127,0
0.19375,1.42,-0.8961681107714499,0
0.19583333333333333,1.4,-0.9116412570286435,0
0.19791666666666666,1.37,-0.9371109776932736,0
0.2,1.34,-0.9625773424750584,0
0.20208333333333334,1.32,-0.9780404212506829,0
0.20416666666666666,1.3,-0.9935002840622327,0
0.20625,1.29,-0.9989570011156265,0
0.20833333333333334,1.28,-1.0044106427790522,0
0.21041666666666667,1.27,-1.0098612795814002,0
0.2125,1.25,-1.0253089822107022,0
0.21458333333333332,1.24,-1.0307538215125716,0
0.21666666666666667,1.24,-1.0261958684886432,0
0.21875,1.22,-1.0416351942950164,0
0.22083333333333333,1.23,-1.0270718702407007,0
0.22291666666666668,1.23,-1.0225059677860617,0
0.225,1.23,-1.0179375585412678,0
0.22708333333333333,1.24,-1.003366714264738,0
0.22916666666666666,1.24,-0.9987935068615932,0
0.23125,1.24,-0.9942180083821099,0
0.23333333333333334,1.25,-0.979640291020176,0
0.23541666666666666,1.25,-0.9750604271117458,0
0.2375,1.25,-0.9704784891332974,0
0.23958333333333334,1.25,-0.9658945497002919,0
0.24166666666666667,1.25,-0.9613086815656362,0
0.24375,1.24,-0.9667209576181477,0
0.24583333333333332,1.25,-0.9521314508810197,0
0.24791666666666667,1.25,-0.9475402345102875,0
0.25,1.26,-0.9329473817932987,0
0.2520833333333333,1.27,-0.9183529661471839,0
0.25416666666666665,1.28,-0.9037570611173307,0
0.25625,1.28,-0.8991597403758578,0
0.25833333333333336,1.29,-0.8845610777200917,0
0.2604166666666667,1.28,-0.8899611470710452,0
0.2625,1.27,-0.8953600224718951,0
0.26458333333333334,1.25,-0.9107577780864656,0
0.26666666666666666,1.23,-0.9261544881977097,0
0.26875,1.21,-0.9415502272061936,0
0.2708333333333333,1.19,-0.9569450696285826,0
0.27291666666666664,1.17,-0.9723390900961287,0
0.275,1.17,-0.9677323633531598,0
0.27708333333333335,1.16,-0.9731249642555705,0
0.2791666666666667,1.16,-0.9685169677693122,0
0.28125,1.19,-0.9339084489688867,0
0.2833333333333333,1.24,-0.8792994830358416,0
0.28541666666666665,1.32,-0.7946901452572638,0
0.2875,1.43,-0.6800805110242764,0
0.28958333333333336,1.56,-0.5454706558305339,0
0.2916666666666667,1.73,-0.3708606552707221,0
0.29375,1.91,-0.18625058503905634,0
0.29583333333333334,2.11,0.018359479072218354,0
0.29791666666666666,2.32,0.23296946117432626,0
0.3,2.49,0.407579285283459,0
0.3020833333333333,2.61,0.5321888753222725,0
0.30416666666666664,2.64,0.5667981551213892,0
0.30625,2.59,0.5214070484208941,0
0.30833333333333335,2.49,0.4260154788718331,0
0.3104166666666667,2.35,0.2906233700377072,0
0.3125,2.18,0.12523064539597406,0
0.3145833333333333,1.99,-0.060162771660455805,0
0.31666666666666665,2.29,0.24444304217827695,0
0.31875,2.28,0.2390480101404754,0
0.32083333333333336,2.27,0.2336520553743895,0
0.3229166666666667,2.26,0.2282551009497098,0
0.325,2.24,0.21285706985906871,0
0.32708333333333334,2.23,0.20745788501953555,0
0.32916666666666666,2.21,0.1920574692741186,0
0.33125,2.2,0.18665574539326257,0
0.3333333333333333,2.19,0.181252636076346,0
0.33541666666666664,2.18,0.17584806395318886,0
0.3375,2.17,0.17044195158554887,0
0.33958333333333335,2.16,0.16503422146862767,0
0.3416666666666667,2.15,0.15962479603256996,0
0.34375,2.13,0.14421359764397124,0
0.3458333333333333,2.12,0.13880054860738245,0
0.34791666666666665,2.11,0.13338557116681338,0
0.35,2.1,0.12796858750724316,0
0.35208333333333336,2.09,0.12254951975612627,0
0.3541666666666667,2.08,0.11712828998490687,0
0.35625,2.07,0.11170482021052663,0
0.35833333333333334,2.07,0.11627903239693971,0
0.36041666666666666,2.06,0.11085084845662663,0
0.3625,2.06,0.11542019025210881,0
0.3645833333333333,2.06,0.11998697959746751,0
0.36666666666666664,2.05,0.11455113825986107,0
0.36875,2.04,0.10911258796104362,0
0.37083333333333335,2.03,0.10367125037888836,0
0.3729166666666667,2.02,0.09822704714891528,0
0.375,2.02,0.10277989986581382,0
0.3770833333333333,2.01,0.09732973008497048,0
0.37916666666666665,2.02,0.11187645932400037,0
0.38125,2.02,0.11642000906427719,0
0.38333333333333336,2.02,0.12096030075246866,0
0.3854166666666667,2.02,0.12549725580207205,0
0.3875,2.02,0.130030795594953,0
0.38958333333333334,2.01,0.1245608414828856,0
0.39166666666666666,2.0,0.11908731478909707,0
0.39375,2.0,0.1236101368098137,0
0.3958333333333333,2.0,0.12812922881580968,0
0.39791666666666664,2.0,0.13264451205395766,0
0.4,1.99,0.1271559077487816,0
0.40208333333333335,1.99,0.1316633371040118,0
0.4041666666666667,1.99,0.1361667213041453,0
0.40625,1.99,0.14066598151600684,0
0.4083333333333333,1.99,0.14516103889031273,0
0.41041666666666665,1.99,0.1496518145632375,0
0.4125,2.0,0.16413822965798264,0
0.41458333333333336,2.01,0.17862020528634814,0
0.4166666666666667,2.01,0.1830976625503098,0
0.41875,2.02,0.1975705225435962,0
0.42083333333333334,2.02,0.20203870635327048,0
0.42291666666666666,2.03,0.2165021350613141,0
0.425,2.04,0.2309607297462153,0
0.4270833333333333,2.04,0.23541441148456055,0
0.42916666666666664,2.05,0.24986310135262935,0
0.43125,2.06,0.26430672042799386,0
0.43333333333333335,2.07,0.2787451897911155,0
0.4354166666666667,2.08,0.2931784305269528,0
0.4375,2.09,0.3076063637265658,0
0.4395833333333333,2.09,0.31202891048873316,0
0.44166666666666665,2.1,0.3264459919215622,0
0.44375,2.1,0.3308575291441096,0
0.44583333333333336,2.1,0.3352634432880046,0
0.4479166666666667,2.1,0.33966365549907385,0
0.45,2.11,0.3540580869389719,0
0.45208333333333334,2.11,0.35844665878681536,0
0.45416666666666666,2.11,0.36282929224081995,0
0.45625,2.11,0.3672059085199404,0
0.4583333333333333,2.1,0.36157642886551367,0
0.46041666666666664,2.1,0.36594077454290885,0
0.4625,2.1,0.37029886684318014,0
0.46458333333333335,2.11,0.38465062708472464,0
0.4666666666666667,2.11,0.38899597661494223,0
0.46875,2.11,0.3933348368118984,0
0.4708333333333333,2.09,0.3776671290859934,0
0.47291666666666665,2.08,0.37199277488163507,0
0.475,2.06,0.35631169567891385,0
0.47708333333333336,2.03,0.33062381299528587,0
0.4791666666666667,2.0,0.3049290483872562,0
0.48125,1.98,0.28922732345206836,0
0.48333333333333334,1.95,0.263518559829399,0
0.48541666666666666,1.93,0.247802679203055,0
0.4875,1.91,0.2320796033026747,0
0.4895833333333333,1.9,0.22634925390543303,0
0.49166666666666664,1.88,0.21061155283775357,0
0.49375,1.87,0.20486642197702254,0
0.49583333333333335,1.85,0.18911378325330586,0
0.4979166666666667,1.84,0.18335355865107356,0
0.5,1.83,0.17758567021092597,0
0.5020833333333333,1.82,0.17181004003132472,0
0.5041666666666667,1.81,0.1660265902703289,0
0.50625,1.8,0.16023524314733323,0
0.5083333333333333,1.79,0.15443592094481184,0
0.5104166666666666,1.78,0.14862854601006825,0
0.5125,1.78,0.15281304075698876,0
0.5145833333333333,1.77,0.1469893276677985,0
0.5166666666666667,1.76,0.14115732929482183,0
0.51875,1.76,0.1453169682622497,0
0.5208333333333334,1.76,0.14946816726791007,0
0.5229166666666667,1.75,0.14361084908504212,0
0.525,1.75,0.1477449365640759,0
0.5270833333333333,1.75,0.1518703526344145,0
0.5291666666666667,1.75,0.15598702030622197,0
0.53125,1.74,0.15009486267221533,0
0.5333333333333333,1.74,0.15419380290946266,0
0.5354166666666667,1.74,0.15828376428118124,0
0.5375,1.74,0.16236467013854228,0
0.5395833333333333,1.74,0.1664364439224808,0
0.5416666666666666,1.74,0.1704990091655092,0
0.54375,1.73,0.16455228949353573,0
0.5458333333333333,1.72,0.15859620862768758,0
0.5479166666666667,1.7,0.1426306903861374,0
0.55,1.68,0.12665565868593642,0
0.5520833333333334,1.66,0.1106710375448492,0
0.5541666666666667,1.63,0.08467675108319439,0
0.55625,1.61,0.06867272352568818,0
0.5583333333333333,1.59,0.052658879203293846,0
0.5604166666666667,1.58,0.04663514255507664,0
0.5625,1.58,0.050601438130059795,0
0.5645833333333333,1.59,0.06455769058908753,0
0.5666666666666667,1.62,0.09850382470669189,0
0.56875,1.69,0.17243976537296313,0
0.5708333333333333,1.78,0.26636543759542436,0
0.5729166666666666,1.9,0.39028076650091015,0
0.575,2.03,0.5241856773374508,0
0.5770833333333333,2.19,0.6880800954761623,0
0.5791666666666667,2.38,0.8819639464131378,0
0.58125,2.57,1.0758371557713438,0
0.5833333333333334,2.75,1.2596996493025205,0
0.5854166666666667,2.87,1.383551352889086,0
0.5875,2.93,1.4473921925460473,0
0.5895833333333333,2.9,1.4212220944229155,0
0.5916666666666667,2.81,1.335040984805623,0
0.59375,2.67,1.1988487901184417,0
0.5958333333333333,2.51,1.042645436925913,0
0.5979166666666667,2.32,0.8564308519347779,0
0.6,2.13,0.6702049619959106,0
0.6020833333333333,1.95,0.49396769410625974,0
0.6041666666666666,1.8,0.34771897541078806,0
0.60625,1.67,0.22145873320442275,0
0.6083333333333333,1.58,0.13518689493400654,0
0.6104166666666667,1.52,0.07890338820025078,0
0.6125,1.48,0.04260814075969556,0
0.6145833333333334,1.45,0.01630108052667094,0
0.6166666666666667,1.43,-1.7864424736876994e-05,0
0.61875,1.42,-0.006348765858716909,0
0.6208333333333333,1.42,-0.0026916953757591677,0
0.6229166666666667,1.41,-0.009046724410680398,0
0.625,1.42,0.004586075769355533,0
0.6270833333333333,1.42,0.008206634066820831,0
0.6291666666666667,1.43,0.021814879555810823,0
0.63125,1.43,0.025410741484033175,0
0.6333333333333333,1.43,0.028994149274802525,0
0.6354166666666666,1.44,0.04256503252903716,0
0.6375,1.45,0.056123321027256964,0
0.6395833333333333,1.46,0.0696689447315845,0
0.6416666666666667,1.46,0.07320183378774983,0
0.64375,1.47,0.08672191852709803,0
0.6458333333333334,1.47,0.09022912946860077,0
0.6479166666666667,1.48,0.10372339732087117,0
0.65,1.48,0.10720465298417887,0
0.6520833333333333,1.49,0.12067282755246936,0
0.6541666666666667,1.49,0.1241278523153859,0
0.65625,1.5,0.13756965876029353,0
0.6583333333333333,1.5,0.14099817857430524,0
0.6604166666666667,1.5,0.14441334364631087,0
0.6625,1.5,0.1478150860690076,0
0.6645833333333333,1.5,0.15120333814093373,0
0.6666666666666666,1.51,0.1645780323685045,0
0.66875,1.51,0.16793910146804975,0
0.6708333333333333,1.52,0.1812864783678532,0
0.6729166666666667,1.53,0.1946200962101945,0
0.675,1.53,0.19793988835339532,0
0.6770833333333334,1.54,0.21124578837386493,0
0.6791666666666667,1.54,0.2145377300681476,0
0.68125,1.54,0.21781564745497184,0
0.6833333333333333,1.54,0.22107947477730144,0
0.6854166666666667,1.54,0.2243291465043884,0
0.6875,1.54,0.22756459733382706,0
0.6895833333333333,1.55,0.2407857621936099,0
0.6916666666666667,1.57,0.26399257624418604,0
0.69375,1.57,0.2671849748805194,0
0.6958333333333333,1.58,0.2803628937341498,0
0.6979166666666666,1.6,0.30352626867525345,0
0.7,1.61,0.3166750358147054,0
0.7020833333333333,1.62,0.32980913150614466,0
0.7041666666666667,1.63,0.3429284923480378,0
0.70625,1.64,0.356033055185744,0
0.7083333333333334,1.66,0.3791227571135814,0
0.7104166666666667,1.67,0.39219753547689307,0
0.7125,1.69,0.4152573278741155,0
0.7145833333333333,1.7,0.4283020721588465,0
0.7166666666666667,1.73,0.46133170644191407,0
0.71875,1.74,0.4743461690934441,0
0.7208333333333333,1.76,0.49734539874493217,0
0.7229166666666667,1.77,0.5103293342913122,0
0.725,1.78,0.5232979148930261,0
0.7270833333333333,1.79,0.5362510799780942,0
0.7291666666666666,1.79,0.5391887692441838,0
0.73125,1.79,0.5421109226606811,0
0.7333333333333333,1.8,0.555017480470761,0
0.7354166666666667,1.8,0.5579083831934563,0
0.7375,1.8,0.5607835716257246,0
0.7395833333333334,1.8,0.5636429868445175,0
0.7416666666666667,1.8,0.566486570208848,0
0.74375,1.79,0.5593142633618573,0
0.7458333333333333,1.77,0.5421260082328822,0
0.7479166666666667,1.76,0.5349217470395204,0
0.75,1.74,0.5177014222896956,0
0.7520833333333333,1.73,0.5104649767837182,0
0.7541666666666667,1.71,0.49321235361634713,0
0.75625,1.69,0.4759434961788509,0
0.7583333333333333,1.68,0.46865834816106766,0
0.7604166666666666,1.66,0.4513568535534612,0
0.7625,1.64,0.4340389566491764,0
0.7645833333333333,1.61,0.40670460204609454,0
0.7666666666666667,1.59,0.38935373464888456,0
0.76875,1.57,0.371986299671054,0
0.7708333333333334,1.55,0.3546022426369945,0
0.7729166666666667,1.53,0.3372015093840297,0
0.775,1.52,0.3297840460644552,0
0.7770833333333333,1.49,0.302349799147581,0
0.7791666666666667,1.47,0.28489871542176815,0
0.78125,1.44,0.2574307419964636,0
0.7833333333333333,1.41,0.22994582630423258,0
0.7854166666666667,1.39,0.2124439161027863,0
0.7875,1.37,0.19492495947700586,0
0.7895833333333333,1.35,0.1773889048409645,0
0.7916666666666666,1.33,0.15983570093994548,0
0.79375,1.32,0.15226529685245616,0
0.7958333333333333,1.3,0.13467764199223872,0
0.7979166666666667,1.29,0.12707268611027592,0
0.8,1.27,0.1094503792967943,0
0.8020833333333334,1.26,0.1018106719832616,0
0.8041666666666667,1.25,0.09415351494438096,0
0.80625,1.23,0.07647885930008022,0
0.8083333333333333,1.21,0.058786656517497066,0
0.8104166666666667,1.19,0.041076858412958606,0
0.8125,1.18,0.03334941715395465,0
0.8145833333333333,1.17,0.025604285261108112,0
0.8166666666666667,1.16,0.017841415610139633,0
0.81875,1.15,0.01006076143382545,0
0.8208333333333333,1.14,0.0022622763239514843,0
0.8229166666666666,1.12,-0.015554085766738446,0
0.825,1.11,-0.023388370522601565,0
0.8270833333333333,1.09,-0.04124062326315783,0
0.8291666666666667,1.08,-0.04911088894116253,0
0.83125,1.07,-0.0569992121406806,0
0.8333333333333334,1.06,-0.06490563707517155,0
0.8354166666666667,1.05,-0.07283020758557818,0
0.8375,1.05,-0.07077296713842252,0
0.8395833333333333,1.04,-0.07873395882390866,0
0.8416666666666667,1.04,-0.07671322535403285,0
0.84375,1.05,-0.0647108090606997,0
0.8458333333333333,1.04,-0.07272675189384625,0
0.8479166666666667,1.03,-0.08076109541957488,0
0.85,1.03,-0.07881388081829149,0
0.8520833333333333,1.03,-0.07688514888285253,0
0.8541666666666666,1.02,-0.08497494001671985,0
0.85625,1.02,-0.08308329423212252,0
0.8583333333333333,1.02,-0.08121025114822736,0
0.8604166666666667,1.02,-0.07935584998931725,0
0.8625,1.03,-0.06752012958297868,0
0.8645833333333334,1.03,-0.06570312835829786,0
0.8666666666666667,1.03,-0.06390488434406535,0
0.86875,1.03,-0.06212543516699018,0
0.8708333333333333,1.02,-0.07036481804992137,0
0.8729166666666667,1.02,-0.06862306981007876,0
0.875,1.01,-0.0769002268572927,0
0.8770833333333333,1.01,-0.07519632519225425,0
0.8791666666666667,1.01,-0.07351140040477538,0
0.88125,1.0,-0.08184548767205854,0
0.8833333333333333,1.0,-0.08019862175697517,0
0.8854166666666666,1.0,-0.07857083700635417,0
0.8875,1.0,-0.07696216734927966,0
0.8895833333333333,1.0,-0.07537264629539994,0
0.8916666666666667,1.0,-0.07380230693324694,0
0.89375,1.0,-0.07225118192856594,0
0.8958333333333334,0.99,-0.08071930352265497,0
0.8979166666666667,0.98,-0.089206703530717,0
0.9,0.97,-0.0977134133402208,0
0.9020833333333333,0.97,-0.09623946390927374,0
0.9041666666666667,0.96,-0.104784885765005,0
0.90625,0.95,-0.11334970900196151,0
0.9083333333333333,0.94,-0.12193396328051453,0
0.9104166666666667,0.91,-0.15053767782527785,0
0.9125,0.89,-0.16916088142353725,0
0.9145833333333333,0.85,-0.20780360242369217,0
0.9166666666666666,0.82,-0.23646586873370967,0
0.91875,0.79,-0.2651477078195898,0
0.9208333333333333,0.76,-0.29384914670384304,0
0.9229166666666667,0.73,-0.3225702119639802,0
0.925,0.7,-0.35131092973101435,0
0.9270833333333334,0.69,-0.36007132568797623,0
0.9291666666666667,0.67,-0.3788514250684426,0
0.93125,0.66,-0.38765125265507744,0
0.9333333333333333,0.65,-0.39647083277818473,0
0.9354166666666667,0.64,-0.4053101893142754,0
0.9375,0.63,-0.414169345684647,0
0.9395833333333333,0.61,-0.43304832485397726,0
0.9416666666666667,0.59,-0.45194714932893154,0
0.94375,0.58,-0.4608658411567826,0
0.9458333333333333,0.58,-0.45980442192404497,0
0.9479166666666666,0.57,-0.4687629127551237,0
0.95,0.56,-0.4777413343109753,0
0.9520833333333333,0.56,-0.4767397067877839,0
0.9541666666666667,0.55,-0.48575804991565014,0
0.95625,0.54,-0.49479638295729655,0
0.9583333333333334,0.53,-0.5038547247067856,0
0.9604166666666667,0.53,-0.5029330934882528,0
0.9625,0.53,-0.5020315071546544,0
0.9645833333333333,0.52,-0.5111499830865305,0
0.9666666666666667,0.53,-0.5002885381907811,0
0.96875,0.52,-0.509447188899459,0
0.9708333333333333,0.52,-0.5086259511685765,0
0.9729166666666667,0.51,-0.5178248404769281,0
0.975,0.51,-0.5170438718249273,0
0.9770833333333333,0.51,-0.5162830597334584,0
0.9791666666666666,0.5,-0.5255424182427455,0
0.98125,0.49,-0.5348219609112352,0
0.9833333333333333,0.48,-0.5441217008144967,0
0.9854166666666667,0.46,-0.5634416505441359,0
0.9875,0.44,-0.5827818222067256,0
0.9895833333333334,0.43,-0.5921422274227515,0
0.9916666666666667,0.4,-0.6215228773255743,0
0.99375,0.39,-0.6309237825604089,0
0.9958333333333333,0.38,-0.6403449532833174,0
0.9979166666666667,0.37,-0.6497863991602195,0
1.0,0.37,-0.649248129365919,0
1.0020833333333334,0.39,-0.6287301525831467,0
1.0041666666666667,0.43,-0.588232477001619,0
1.00625,0.49,-0.527755110317114,0
1.0083333333333333,0.6,-0.41729805973056294,0
1.0104166666666667,0.74,-0.2768613319471592,0
1.0125,0.9,-0.11644493317548299,0
1.0145833333333334,1.09,0.07395113087335597,0
1.0166666666666666,1.3,0.2843268549865603,0
1.01875,1.5,0.4846822344504679,0
1.0208333333333333,1.67,0.6550172650513599,0
1.0229166666666667,1.77,0.7553319430762537,0
1.025,1.8,0.7856262653136745,0
1.0270833333333333,1.76,0.7459002290544134,0
1.0291666666666666,1.65,0.636153832092266,0
1.03125,1.52,0.5063870727247567,0
1.0333333333333334,1.34,0.3265999497538462,0
1.0354166666666667,1.16,0.1467924624866187,0
1.0375,0.97,-0.04303538926404665,0
1.0395833333333333,0.81,-0.20288360517882165,0
1.0416666666666667,0.67,-0.3427521844312927,0
1.04375,0.55,-0.46264112568734106,0
1.0458333333333334,0.47,-0.542550427104543,0
1.0479166666666666,0.41,-0.6024800863315851,0
1.05,0.37,-0.6424301005076996,0
1.0520833333333333,0.34,-0.6724004662621161,0
1.0541666666666667,0.32,-0.6923911797135325,0
1.05625,0.32,-0.6924022364696012,0
1.0583333333333333,0.31,-0.7024336316264368,0
1.0604166666666666,0.32,-0.6924853597681401,0
1.0625,0.32,-0.6925574149663413,0
1.0645833333333334,0.33,-0.6826497907797597,0
1.0666666666666667,0.34,-0.6727624802537833,0
1.06875,0.34,-0.6728954759200654,0
1.0708333333333333,0.35,-0.6630487697961402,0
1.0729166666666667,0.36,-0.6532223533850565,0
1.075,0.36,-0.6534162176750304,0
1.0770833333333334,0.37,-0.643630353139116,0
1.0791666666666666,0.38,-0.6338647497348956,0
1.08125,0.38,-0.6341193969041887,0
1.0833333333333333,0.39,-0.6243942835727785,0
1.0854166666666667,0.4,-0.614689398150157,0
1.0875,0.41,-0.6050047285292898,0
1.0895833333333333,0.42,-0.5953402620863991,0
1.0916666666666666,0.43,-0.5856959856807664,0
1.09375,0.44,-0.5760718856545523,0
1.0958333333333334,0.46,-0.5564679478326361,0
1.0979166666666667,0.47,-0.5468841575224749,0
1.1,0.48,-0.5373204995139801,0
1.1020833333333333,0.49,-0.5277769580794144,0
1.1041666666666667,0.5,-0.5182535169733063,0
1.10625,0.51,-0.5087501594323842,0
1.1083333333333334,0.52,-0.4992668681755286,0
1.1104166666666666,0.54,-0.47980362540374494,0
1.1125,0.55,-0.47036041280015417,0
1.1145833333333333,0.56,-0.4609372115300029,0
1.1166666666666667,0.58,-0.44153400224069195,0
1.11875,0.6,-0.4221507650618239,0
1.1208333333333333,0.61,-0.41278747960526996,0
1.1229166666666666,0.63,-0.39344412496525616,0
1.125,0.64,-0.3841206797184674,0
1.1270833333333334,0.65,-0.37481712192417116,0
1.1291666666666667,0.67,-0.35553342912436003,0
1.13125,0.69,-0.33626957834391313,0
1.1333333333333333,0.71,-0.3170255460907768,0
1.1354166666666667,0.73,-0.2978013083561648,0
1.1375,0.75,-0.2785968406147759,0
1.1395833333333334,0.77,-0.2594121178250317,0
1.1416666666666666,0.78,-0.25024711442933323,0
1.14375,0.81,-0.22110180435433607,0
1.1458333333333333,0.83,-0.20197616101124466,0
1.1479166666666667,0.85,-0.1828701572961256,0
1.15,0.87,-0.16378376559024072,0
1.1520833333333333,0.89,-0.1447169577603979,0
1.1541666666666666,0.92,-0.11566970515931968,0
1.15625,0.94,-0.09664197862603247,0
1.1583333333333334,0.96,-0.07763374848627214,0
1.1604166666666667,0.97,-0.06864498455291168,0
1.1625,0.99,-0.049675656126405954,0
1.1645833333333333,1.0,-0.04072573199525642,0
1.1666666666666667,1.01,-0.0317951804364926,0
1.16875,1.02,-0.022883969216174138,0
1.1708333333333334,1.04,-0.003992065589910887,0
1.1729166666666666,1.05,0.004880563696597617,0
1.175,1.06,0.013733952407005756,0
1.1770833333333333,1.07,0.0225681348137452,0
1.1791666666666667,1.07,0.02138314569743116,0
1.18125,1.08,0.030179020346246754,0
1.1833333333333333,1.08,0.028955794555311498,0
1.1854166666666666,1.07,0.017713504626031995,0
1.1875,1.06,0.006452187365432516,0
1.1895833333333334,1.05,-0.004828119914533746,0
1.1916666666666667,1.05,-0.0061273793976903135,0
1.19375,1.04,-0.01744555276436216,0
1.1958333333333333,1.03,-0.02878260119211934,0
1.1979166666666667,1.03,-0.030138485356538902,0
1.2,1.02,-0.04151316543198608,0
1.2020833333333334,1.01,-0.052906601092411465,0
1.2041666666666666,1.0,-0.06431875151216943,0
1.20625,0.99,-0.07574957536685334,0
1.2083333333333333,0.97,-0.09719903083414994,0
1.2104166666666667,0.96,-0.10866707559471062,0
1.2125,0.94,-0.1301536668330433,0
1.2145833333333333,0.93,-0.14165876123842086,0
1.2166666666666666,0.91,-0.16318231500580965,0
1.21875,0.9,-0.17472428383681501,0
1.2208333333333334,0.89,-0.1862846229406457,0
1.2229166666666667,0.88,-0.1978632870350959,0
1.225,0.87,-0.2094602303475461,0
1.2270833333333333,0.87,-0.21107540661598137,0
1.2291666666666667,0.86,-0.2227087690900299,0
1.23125,0.85,-0.23436027053201786,0
1.2333333333333334,0.85,-0.2360298632180421,0
1.2354166666666666,0.84,-0.2477174989390625,0
1.2375,0.84,-0.2494231290020117,0
1.2395833333333333,0.84,-0.25114670423092167,0
1.2416666666666667,0.83,-0.2628881749680702,0
1.24375,0.83,-0.26464749107514435,0
1.2458333333333333,0.83,-0.2664246019344233,0
1.2479166666666666,0.82,-0.2782194564499786,0
1.25,0.82,-0.28003200304889087,0
1.2520833333333334,0.82,-0.28186218968248555,0
1.2541666666666667,0.82,-0.28370996382758573,0
1.25625,0.82,-0.2855752724877841,0
1.2583333333333333,0.82,-0.2874580621947314,0
1.2604166666666667,0.81,-0.2993582790094443,0
1.2625,0.8,-0.31127586852363026,0
1.2645833333333334,0.8,-0.31321077586102947,0
1.2666666666666666,0.8,-0.31516294567877545,0
1.26875,0.8,-0.31713232216877263,0
1.2708333333333333,0.8,-0.3191188490590914,0
1.2729166666666667,0.8,-0.3211224696153815,0
1.275,0.81,-0.3131431266423022,0
1.2770833333333333,0.82,-0.30518076248497056,0
1.2791666666666666,0.82,-0.3072353190304262,0
1.28125,0.83,-0.2993067377091144,0
1.2833333333333334,0.84,-0.2913949594963857,0
1.2854166666666667,0.84,-0.29349992491401383,0
1.2875,0.84,-0.29562157403172984,0
1.2895833333333333,0.85,-0.28775984646877373,0
1.2916666666666667,0.85,-0.2899146813954635,0
1.29375,0.86,-0.2820860175347816,0
1.2958333333333334,0.86,-0.284273793163978,0
1.2979166666666666,0.86,-0.2864779461161901,0
1.3,0.87,-0.2786984137820788,0
1.3020833333333333,0.88,-0.2709351331114829,0
1.3041666666666667,0.89,-0.2631880406150888,0
1.30625,0.9,-0.2554570723661179,0
1.3083333333333333,0.91,-0.247742164002031,0
1.3104166666666666,0.93,-0.23004325072624848,0
1.3125,0.94,-0.22236026730988928,0
1.3145833333333334,0.95,-0.21469314809352327,0
1.3166666666666667,0.96,-0.20704182698894208,0
1.31875,0.96,-0.20940623748094528,0
1.3208333333333333,0.97,-0.2017863126291437,0
1.3229166666666667,0.99,-0.1841819850697792,0
1.325,0.99,-0.1865931870175602,0
1.3270833333333334,1.0,-0.17901985026751244,0
1.3291666666666666,1.0,-0.18146190619684724,0
1.33125,1.01,-0.1739192857668454,0
1.3333333333333333,1.01,-0.17639191952475733,0
1.3354166666666667,1.02,-0.16887973760571914,0
1.3375,1.02,-0.17138266973468325,0
1.3395833333333333,1.02,-0.17390064522836557,0
1.3416666666666666,1.03,-0.1664335929972075,0
1.34375,1.03,-0.16898144154735464,0
1.3458333333333334,1.02,-0.18154411898265133,0
1.3479166666666667,1.01,-0.19412155300665,0
1.35,0.99,-0.2167136709246362,0
1.3520833333333333,0.97,-0.2393203996456694,0
1.3541666666666667,0.96,-0.25194166568463705,0
1.35625,0.93,-0.2845773951643252,0
1.3583333333333334,0.91,-0.30722751381750435,0
1.3604166666666666,0.89,-0.32989194698903096,0
1.3625,0.88,-0.3425706196379624,0
1.3645833333333333,0.87,-0.3552634563396878,0
1.3666666666666667,0.86,-0.3679703812880733,0
1.36875,0.85,-0.38069131829762276,0
1.3708333333333333,0.85,-0.38342619080565127,0
1.3729166666666666,0.84,-0.39617492187447473,0
1.375,0.83,-0.4089374341936134,0
1.3770833333333334,0.83,-0.4117136500820098,0
1.3791666666666667,0.83,-0.4145034914902611,0
1.38125,0.83,-0.41730688000286675,0
1.3833333333333333,0.83,-0.420123736840488,0
1.3854166666666667,0.83,-0.42295398286222324,0
1.3875,0.83,-0.42579753856789737,0
1.3895833333333334,0.84,-0.4186543241003638,0
1.3916666666666666,0.84,-0.421524259247821,0
1.39375,0.84,-0.4244072634461421,0
1.3958333333333333,0.85,-0.41730325578121824,0
1.3979166666666667,0.86,-0.41021215499131564,0
1.4,0.86,-0.4131338794694469,0
1.4020833333333333,0.87,-0.40606834726575497,0
1.4041666666666666,0.87,-0.40901547608990957,0
1.40625,0.88,-0.4019751833135181,0
1.4083333333333334,0.89,-0.3949473859725481,0
1.4104166666666667,0.9,-0.3879320007697621,0
1.4125,0.9,-0.3909289440771669,0
1.4145833333333333,0.9,-0.3939381319384741,0
1.4166666666666667,0.9,-0.39695948007157433,0
1.41875,0.9,-0.39999290387102326,0
1.4208333333333334,0.9,-0.4030383184105401,0
1.4229166666666666,0.89,-0.41609563844551894,0
1.425,0.88,-0.42916477841555056,0
1.4270833333333333,0.87,-0.442245652446958,0
1.4291666666666667,0.86,-0.4553381743553423,0
1.43125,0.84,-0.4784422576481417,0
1.4333333333333333,0.83,-0.491557815527201,0
1.4354166666666666,0.82,-0.5046847608913538,0
1.4375,0.81,-0.5178230063390151,0
1.4395833333333334,0.81,-0.5209724641707855,0
1.4416666666666667,0.84,-0.49413304639206596,0
1.44375,0.89,-0.44730466471568425,0
1.4458333333333333,0.98,-0.36048723056453136,0
1.4479166666666667,1.1,-0.24368065507420925,0
1.45,1.26,-0.08688484909569044,0
1.4520833333333334,1.44,0.08990027680201507,0
1.4541666666666666,1.65,0.29667481232917836,0
1.45625,1.87,0.5134388474726631,0
1.4583333333333333,2.08,0.7201924724932249,0
1.4604166666666667,2.25,0.886935777922802,0
1.4625,2.37,1.0036688545617989,0
1.4645833333333333,2.41,1.0403917934763545,0
1.4666666666666666,2.38,1.007104685995605,0
1.46875,2.29,0.9138076237089352,0
1.4708333333333334,2.16,0.78050069846322,0
1.4729166666666667,1.99,0.607184002360061,0
1.475,1.8,0.4138576277530134,0
1.4770833333333333,1.62,0.23052166724480289,0
1.4791666666666667,1.46,0.06717621368453203,0
1.48125,1.32,-0.07617863983511913,0
1.4833333333333334,1.21,-0.18954279998070522,0
1.4854166666666666,1.13,-0.2729161731808313,0
1.4875,1.07,-0.3362986656289799,0
1.4895833333333333,1.03,-0.3796901832863469,0
1.4916666666666667,1.01,-0.4030906318846825,0
1.49375,1.0,-0.41649991692914384,0
1.4958333333333333,1.0,-0.4199179437011527,0
1.4979166666666666,1.01,-0.41334461726126165,0
1.5,1.02,-0.4067798424520288,0
1.5020833333333334,1.04,-0.3902235239008993,0
1.5041666666666667,1.05,-0.3836755660230945,0
1.50625,1.07,-0.36713587302450734,0
1.5083333333333333,1.09,-0.3506043489046078,0
1.5104166666666667,1.1,-0.3440808974593523,0
1.5125,1.11,-0.3375654222841027,0
1.5145833333333334,1.12,-0.331057826776549,0
1.5166666666666666,1.14,-0.31455801413964146,0
1.51875,1.15,-0.3080658873845267,0
1.5208333333333333,1.16,-0.30158134933349456,0
1.5229166666666667,1.18,-0.28510430262292624,0
1.525,1.19,-0.2786346497062528,0
1.5270833333333333,1.21,-0.26217229285691834,0
1.5291666666666666,1.23,-0.24571713417134744,0
1.53125,1.25,-0.22926907557192017,0
1.5333333333333334,1.27,-0.21282801880995098,0
1.5354166666666667,1.28,-0.20639386546867478,0
1.5375,1.3,-0.1899665169662367,0
1.5395833333333333,1.31,-0.1835458745586903,0
1.5416666666666667,1.33,-0.16713183934299747,0
1.54375,1.34,-0.16072431226003595,0
1.5458333333333334,1.36,-0.14432319409760846,0
1.5479166666666666,1.38,-0.12792838549346086,0
1.55,1.4,-0.11153978693830038,0
1.5520833333333333,1.42,-0.09515729877882394,0
1.5541666666666667,1.44,-0.0787808212207448,0
1.55625,1.46,-0.062410254331827134,0
1.5583333333333333,1.48,-0.04604549804492318,0
1.5604166666666666,1.5,-0.029686452161014995,0
1.5625,1.52,-0.013333016352257504,0
1.5645833333333334,1.53,-0.006985090165028865,0
1.5666666666666667,1.55,0.0093574269770193,0
1.56875,1.58,0.03569463576990617,0
1.5708333333333333,1.6,0.05202663702626248,0
1.5729166666666667,1.62,0.06835353167226854,0
1.575,1.64,0.08467542074459244,0
1.5770833333333334,1.67,0.11099240538732291,0
1.5791666666666666,1.69,0.1273045868488985,0
1.58125,1.71,0.1436120664790362,0
1.5833333333333333,1.73,0.15991494572565748,0
1.5854166666666667,1.76,0.18621332613181182,0
1.5875,1.78,0.20250730933259836,0
1.5895833333333333,1.81,0.22879699705208656,0
1.5916666666666666,1.84,0.25508249110023246,0
1.59375,1.87,0.28136389336979567,0
1.5958333333333334,1.89,0.2976413058332545,0
1.5979166666666667,1.92,0.3239148305397205,0
1.6,1.94,0.34018456961184834,0
1.6020833333333333,1.96,0.3564506252427481,0
1.6041666666666667,1.97,0.3627130996928961,0
1.60625,1.99,0.37897209528704406,0
1.6083333333333334,2.01,0.3952277144111276,0
1.6104166666666666,2.03,0.4114800595091754,0
1.6125,2.04,0.4177292330802173,0
1.6145833333333333,2.06,0.4339753376751913,0
1.6166666666666667,2.06,0.4302184758938524,0
1.61875,2.08,0.44645875038167954,0
1.6208333333333333,2.08,0.4426962638267825,0
1.6229166666666666,2.08,0.43893111895681036,0
1.625,2.07,0.42516341853586026,0
1.6270833333333334,2.07,0.42139326536138655,0
1.6291666666666667,2.07,0.41762076226110906,0
1.63125,2.07,0.41384601208992694,0
1.6333333333333333,2.06,0.4000691177268285,0
1.6354166666666667,2.06,0.396290182071802,0
1.6375,2.05,0.3825093080427483,0
1.6395833333333334,2.04,0.3687265985723952,0
1.6416666666666666,2.03,0.3549421566052114,0
1.64375,2.03,0.3511560850943265,0
1.6458333333333333,2.02,0.33736848699844824,0
1.6479166666666667,2.01,0.32357946527878184,0
1.65,2.0,0.30978912289595373,0
1.6520833333333333,1.99,0.2959975628069337,0
1.6541666666666666,1.98,0.2822048879619614,0
1.65625,1.97,0.26841120130147383,0
1.6583333333333334,1.96,0.25461660575303485,0
1.6604166666666667,1.96,0.2508212042282664,0
1.6625,1.95,0.2370250996197838,0
1.6645833333333333,1.93,0.2132283947981303,0
1.6666666666666667,1.92,0.19943119260871844,0
1.66875,1.92,0.19563359586876966,0
1.6708333333333334,1.91,0.18183570736425939,0
1.6729166666666666,1.91,0.17803762984686466,0
1.675,1.91,0.17423946603091475,0
1.6770833333333333,1.9,0.16044131859034416,0
1.6791666666666667,1.9,0.15664329015564935,0
1.68125,1.9,0.15284548331084793,0
1.6833333333333333,1.9,0.14904800059044213,0
1.6854166666666666,1.9,0.14525094447638423,0
1.6875,1.9,0.14145441739504608,0
1.6895833333333334,1.9,0.13765852171419324,0
1.6916666666666667,1.89,0.12386335973996032,0
1.69375,1.89,0.12006903371383132,0
1.6958333333333333,1.89,0.1162756458096221,0
1.6979166666666667,1.89,0.11248329813046731,0
1.7,1.89,0.10869209270581287,0
1.7020833333333334,1.89,0.10490213148841249,0
1.7041666666666666,1.88,0.09111351635132742,0
1.70625,1.88,0.08732634908493175,0
1.7083333333333333,1.88,0.0835407313939206,0
1.7104166666666667,1.88,0.07975676489432415,0
1.7125,1.89,0.08597455111052493,0
1.7145833333333333,1.9,0.09219419147227986,0
1.7166666666666666,1.91,0.09841578731174816,0
1.71875,1.92,0.10463943986052265,0
1.7208333333333334,1.93,0.11086525024666621,0
1.7229166666666667,1.94,0.11709331949175417,0
1.725,1.94,0.1133237485079181,0
1.7270833333333333,1.95,0.11955663809490025,0
1.7291666666666667,1.95,0.11579208893710902,0
1.73125,1.96,0.12203020160068029,0
1.7333333333333334,1.96,0.11827107653054442,0
1.7354166666666666,1.96,0.11451481404749891,0
1.7375,1.97,0.12076151434528809,0
1.7395833333333333,1.98,0.12701127748768493,0
1.7416666666666667,1.99,0.13326420340558065,0
1.74375,2.0,0.1395203918940816,0
1.7458333333333333,2.0,0.13577994260960835,0
1.7479166666666666,2.01,0.1420429550670022,0
1.75,2.02,0.14830952863663932,0
1.7520833333333334,2.03,0.1545797625415471,0
1.7541666666666667,2.03,0.15085375585453076,0
1.75625,2.04,0.1571316074953032,0
1.7583333333333333,2.06,0.1734134162276243,0
1.7604166666666667,2.06,0.1696992806564453,0
1.7625,2.07,0.1759892992250579,0
1.7645833333333334,2.08,0.18228357021225156,0
1.7666666666666666,2.08,0.17858219172947576,0
1.76875,2.09,0.18488526171801206,0
1.7708333333333333,2.1,0.19119287794614853,0
1.7729166666666667,2.1,0.18750513800636348,0
1.775,2.11,0.1938221393125168,0
1.7770833333333333,2.11,0.19014397909704694,0
1.7791666666666666,2.11,0.18647075440817518,0
1.78125,2.12,0.19280256210711644,0
1.7833333333333334,2.12,0.18913949886529968,0
1.7854166666666667,2.11,0.17548166116159475,0
1.7875,2.1,0.16182914527954456,0
1.7895833333333333,2.08,0.13818204730460437,0
1.7916666666666667,2.06,0.11454046312139093,0
1.79375,2.04,0.0909044884109394,0
1.7958333333333334,2.02,0.06727421864796512,0
1.7979166666666666,1.99,0.03364974909813501,0
1.8,1.98,0.02003117481534583,0
1.8020833333333333,1.96,-0.0035814093609896624,0
1.8041666666666667,1.96,-0.007187908808646559,0
1.80625,1.95,-0.02078822912528877,0
1.8083333333333333,1.94,-0.03438227613115741,0
1.8104166666666666,1.93,-0.04796995587175373,0
1.8125,1.92,-0.06155117462051185,0
1.8145833333333334,1.92,-0.06512583888146634,0
1.8166666666666667,1.91,-0.07869385539191015,0
1.81875,1.91,-0.08225513112504212,0
1.8208333333333333,1.91,-0.08580957329260785,0
1.8229166666666667,1.91,-0.08935708934753211,0
1.825,1.9,-0.10289758698654428,0
1.8270833333333334,1.9,-0.10643097415279162,0
1.8291666666666666,1.9,-0.10995715903844644,0
1.83125,1.9,-0.11347605008730488,0
1.8333333333333333,1.9,-0.11698755599737409,0
1.8354166666666667,1.91,-0.11049158572345458,0
1.8375,1.92,-0.10398804847971171,0
1.8395833333333333,1.92,-0.10747685374223931,0
1.8416666666666666,1.93,-0.10095791125161496,0
1.84375,1.93,-0.10443113101544355,0
1.8458333333333334,1.94,-0.09789642331089371,0
1.8479166666666667,1.94,-0.10135369868722421,0
1.85,1.95,-0.09480286796829918,0
1.8520833333333333,1.95,-0.09824384225509508,0
1.8541666666666667,1.96,-0.09167653292820072,0
1.85625,1.96,-0.0951008516503064,0
1.8583333333333334,1.96,-0.09851671036868281,0
1.8604166666666666,1.95,-0.11192402131765022,0
1.8625,1.94,-0.12532269702103815,0
1.8645833333333333,1.94,-0.1287126502946354,0
1.8666666666666667,1.92,-0.15209379424863045,0
1.86875,1.91,-0.16546604229004036,0
1.8708333333333333,1.9,-0.1788293081251333,0
1.8729166666666666,1.88,-0.20218350576183752,0
1.875,1.87,-0.2155285495121404,0
1.8770833333333334,1.87,-0.21886435399447912,0
1.8791666666666667,1.88,-0.21219083413611928,0
1.88125,1.91,-0.1855079051755224,0
1.8833333333333333,1.96,-0.13881548266470733,0
1.8854166666666667,2.05,-0.052113482471596695,0
1.8875,2.17,0.06459817921764532,0
1.8895833333333334,2.33,0.2213195858962839,0
1.8916666666666666,2.51,0.39805082073469716,0
1.89375,2.72,0.604791966578073,0
1.8958333333333333,2.94,0.8215431059441112,0
1.8979166666666667,3.14,1.0183043210207485,0
1.9,3.27,1.1450756936638795,0
1.9020833333333333,3.27,1.1418573053950998,0
1.9041666666666666,3.28,1.1486492373994521,0
1.90625,3.27,1.1354515705231893,0
1.9083333333333334,3.26,1.1222643852715475,0
1.9104166666666667,3.21,1.0690877618065335,0
1.9125,3.07,0.9259217799447179,0
1.9145833333333333,2.87,0.7227665191550444,0
1.9166666666666667,2.67,0.5196220585566482,0
1.91875,2.49,0.33648847691668937,0
1.9208333333333334,2.33,0.17336585264818832,0
1.9229166666666666,2.19,0.030254263807886317,0
1.925,2.1,-0.06284621190588957,0
1.9270833333333333,2.03,-0.13593549715534903,0
1.9291666666666667,1.98,-0.1890135149653459,0
1.93125,1.96,-0.21208018872548162,0
1.9333333333333333,1.95,-0.22513544219218762,0
1.9354166666666666,1.95,-0.22817919949080256,0
1.9375,1.95,-0.23121138511763417,0
1.9395833333333334,1.96,-0.22423192394201052,0
1.9416666666666667,1.97,-0.2172407412083186,0
1.94375,1.98,-0.2102377625380304,0
1.9458333333333333,1.98,-0.21322291393171988,0
1.9479166666666667,1.99,-0.20619612177106394,0
1.95,2.0,-0.1991573128208297,0
1.9520833333333334,2.01,-0.19210641423085328,0
1.9541666666666666,2.02,-0.18504335353800605,0
1.95625,2.03,-0.17796805866814813,0
1.9583333333333333,2.04,-0.17088045793806828,0
1.9604166666666667,2.05,-0.16378048005741364,0
1.9625,2.06,-0.1566680541306027,0
1.9645833333333333,2.07,-0.14954310965873008,0
1.9666666666666666,2.09,-0.13240557654145524,0
1.96875,2.1,-0.12525538507888256,0
1.9708333333333334,2.12,-0.10809246597342526,0
1.9729166666666667,2.13,-0.10091675033165959,0
1.975,2.15,-0.08372816966616148,0
1.9770833333333333,2.16,-0.07652665589733776,0
1.9791666666666667,2.17,-0.06931214135523689,0
1.98125,2.18,-0.062084558781347665,0
1.9833333333333334,2.18,-0.06484384133039228,0
1.9854166666666666,2.2,-0.0475899225720981,0
1.9875,2.21,-0.040322736492959255,0
1.9895833333333333,2.23,-0.023042217497983075,0
1.9916666666666667,2.24,-0.015748300412428695,0
1.99375,2.25,-0.00844092048352929,0
1.9958333333333333,2.27,0.008879986617801039,0
1.9979166666666666,2.28,0.016214484795268602,0
2.0,2.3,0.03356263752552452,0
2.002083333333333,2.32,0.050924507856491386,0
2.004166666666667,2.34,0.06830015840571041,0
2.00625,2.36,0.0856896513586991,0
2.0083333333333333,2.37,0.09309304846732397,0
2.0104166666666665,2.39,0.11051041104818538,0
2.0125,2.41,0.12794179998101995,0
2.0145833333333334,2.43,0.14538727570711213,0
2.0166666666666666,2.45,0.16284689822772097,0
2.01875,2.47,0.18032072710252223,0
2.0208333333333335,2.49,0.197808821448063,0
2.0229166666666667,2.51,0.21531123993623164,0
2.025,2.53,0.23282804079274058,0
2.027083333333333,2.56,0.2603592817956245,0
2.029166666666667,2.58,0.27790502027375175,0
2.03125,2.6,0.29546531310535257,0
2.033333333333333,2.61,0.3030402167165569,0
2.035416666666667,2.64,0.3306297870799497,0
2.0375,2.66,0.34823407971313525,0
2.0395833333333333,2.68,0.3658531496773227,0
2.0416666666666665,2.69,0.3734870515759244,0
2.04375,2.71,0.39113583955316533,0
2.0458333333333334,2.73,0.4087995672927109,0
2.0479166666666666,2.74,0.4164782880163057,0
2.05,2.75,0.4241720544824284,0
2.0520833333333335,2.76,0.4318809189849616,0
2.0541666666666667,2.76,0.42960493335188005,0
2.05625,2.77,0.43734414894394646,0
2.058333333333333,2.77,0.43509861665342553,0
2.060416666666667,2.77,0.4328683869028176,0
2.0625,2.77,0.4306535096436001,0
2.064583333333333,2.77,0.42845403435498525,0
2.066666666666667,2.76,0.4162700100426946,0
2.06875,2.76,0.4141014852377467,0
2.0708333333333333,2.76,0.4119485079952548,0
2.0729166666666665,2.76,0.40981112589324653,0
2.075,2.75,0.3976893860314991,0
2.0770833333333334,2.74,0.38558333503038417,0
2.0791666666666666,2.73,0.3734930190297353,0
2.08125,2.72,0.3614184836877233,0
2.0833333333333335,2.69,0.3293597741797459,0
2.0854166666666667,2.68,0.3173169351973403,0
2.0875,2.66,0.29529001094710283,0
2.089583333333333,2.64,0.27327904514962875,0
2.091666666666667,2.63,0.26128408103846706,0
2.09375,2.62,0.2493051613590846,0
2.095833333333333,2.61,0.23734232836784896,0
2.097916666666667,2.59,0.2153956238310305,0
2.1,2.58,0.20346508902381338,0
2.1020833333333333,2.57,0.1915507647293232,0
2.1041666666666665,2.56,0.1796526912376718,0
2.10625,2.55,0.16777090834501313,0
2.1083333333333334,2.54,0.1559054553526189,0
2.1104166666666666,2.53,0.14405637106596536,0
2.1125,2.52,0.13222369379384108,0
2.1145833333333335,2.51,0.1204074613474605,0
2.1166666666666667,2.5,0.10860771103960198,0
2.11875,2.5,0.10682447968375225,0
2.120833333333333,2.49,0.09505780359327548,0
2.122916666666667,2.48,0.0833077185805911,0
2.125,2.47,0.07157425995636685,0
2.127083333333333,2.46,0.0598574625287262,0
2.129166666666667,2.45,0.04815736060247783,0
2.13125,2.45,0.04647398797835245,0
2.1333333333333333,2.44,0.034807377952258634,0
2.1354166666666665,2.44,0.033157563314550775,0
2.1375,2.43,0.021524576349314817,0
2.1395833333333334,2.43,0.019908448833669823,0
2.1416666666666666,2.42,0.008309212037084568,0
2.14375,2.41,-0.003273103279293421,0
2.1458333333333335,2.41,-0.004838466863293367,0
2.1479166666666667,2.4,-0.01638684897236109,0
2.15,2.4,-0.017918220374180338,0
2.152083333333333,2.4,-0.01943255234728547,0
2.154166666666667,2.4,-0.020929816681652058,0
2.15625,2.39,-0.03240998567927622,0
2.158333333333333,2.39,-0.033873032154739136,0
2.160416666666667,2.4,-0.025318929435755977,0
2.1625,2.4,-0.026747651363708658,0
2.1645833333333333,2.4,-0.028159172294166757,0
2.1666666666666665,2.4,-0.029553467097387265,0
2.16875,2.4,-0.030930511158805185,0
2.1708333333333334,2.4,-0.03229028037950521,0
2.1729166666666666,2.4,-0.03363275117668124,0
2.175,2.41,-0.024957900484079698,0
2.1770833333333335,2.42,-0.016265705752430082,0
2.1791666666666667,2.43,-0.0075561449498532385,0
2.18125,2.44,0.0011708034377356236,0
2.183333333333333,2.45,0.00991516040624879,0
2.185416666666667,2.46,0.018676946433054786,0
2.1875,2.46,0.01745618147662764,0
2.189583333333333,2.47,0.026252884976208035,0
2.191666666666667,2.48,0.035067075851481166,0
2.19375,2.49,0.04389877250227281,0
2.1958333333333333,2.49,0.04274799280825142,0
2.1979166666666665,2.49,0.04161475412865645,0
2.2,2.5,0.05049907330203357,0
2.2020833333333334,2.5,0.049400966645988476,0
2.2041666666666666,2.5,0.04832044995695328,0
2.20625,2.5,0.047257538509971275,0
2.2083333333333335,2.51,0.05621224705849581,0
2.2104166666666667,2.51,0.055184589834202435,0
2.2125,2.52,0.0641745805468163,0
2.214583333333333,2.53,0.07318223238395133,0
2.216666666666667,2.54,0.08220755801097374,0
2.21875,2.54,0.08125056957087173,0
2.220833333333333,2.54,0.080311278684148,0
2.222916666666667,2.54,0.07938969644871985,0
2.225,2.54,0.07848583343983939,0
2.2270833333333333,2.54,0.0775996997100259,0
2.2291666666666665,2.53,0.06673130478901534,0
2.23125,2.52,0.055880657683726465,0
2.2333333333333334,2.51,0.045047766878236695,0
2.2354166666666666,2.49,0.0242326403337777,0
2.2375,2.47,0.00343528548874128,0
2.2395833333333335,2.45,-0.017344290741295565,0
2.2416666666666667,2.42,-0.04810608196353272,0
2.24375,2.4,-0.06885008230789397,0
2.245833333333333,2.38,-0.08957628642695692,0
2.247916666666667,2.36,-0.11028468949587195,0
2.25,2.34,-0.1309752872122606,0
2.252083333333333,2.33,-0.1416480757961015,0
2.254166666666667,2.32,-0.15230305198960498,0
2.25625,2.31,-0.1629402130570663,0
2.2583333333333333,2.31,-0.16355955678471135,0
2.2604166666666665,2.3,-0.17416108148051834,0
2.2625,2.29,-0.18474478597402955,0
2.2645833333333334,2.28,-0.19531066961615062,0
2.2666666666666666,2.27,-0.20585873227892804,0
2.26875,2.27,-0.206388974355321,0
2.2708333333333335,2.26,-0.21690139675894726,0
2.2729166666666667,2.26,-0.21739600092382305,0
2.275,2.26,-0.21787278880408656,0
2.277083333333333,2.26,-0.21833176287370276,0
2.279166666666667,2.27,-0.2087729261261561,0
2.28125,2.27,-0.20919628207412633,0
2.283333333333333,2.27,-0.20960183474915028,0
2.285416666666667,2.26,-0.21998958870126922,0
2.2875,2.27,-0.21035954899865938,0
2.2895833333333333,2.27,-0.21071172122725162,0
2.2916666666666665,2.27,-0.21104611149033037,0
2.29375,2.27,-0.21136272640812132,0
2.2958333333333334,2.27,-0.21166157311736356,0
2.2979166666666666,2.28,-0.2019426592708669,0
2.3,2.28,-0.20220599303705145,0
2.3020833333333335,2.29,-0.19245158309947502,0
2.3041666666666667,2.28,-0.20267943865634713,0
2.30625,2.28,-0.20288956942002334,0
2.308333333333333,2.27,-0.21308198561648856,0
2.310416666666667,2.26,-0.2232566979848229,0
2.3125,2.24,-0.24341371777665122,0
2.314583333333333,2.22,-0.26355305675558305,0
2.316666666666667,2.21,-0.2736747271966309,0
2.31875,2.19,-0.2937787418856174,0
2.3208333333333333,2.19,-0.29386511411856675,0
2.3229166666666665,2.19,-0.29393385770107855,0
2.325,2.2,-0.2839849869476864,0
2.3270833333333334,2.23,-0.25401851668120556,0
2.3291666666666666,2.29,-0.1940344622320609,0
2.33125,2.39,-0.09403283943760568,0
2.3333333333333335,2.51,0.02598633535857857,0
2.3354166666666667,2.66,0.17602304530740082,0
2.3375,2.85,0.3660772730549879,0
2.339583333333333,3.05,0.5661490007434352,0
2.341666666666667,3.25,0.7662382100115677,0
2.34375,3.27,0.7863448819957145,0
2.345833333333333,3.28,0.7964689973305037,0
2.347916666666667,3.28,0.796610536149669,0
2.35,3.28,0.7967694780868736,0
2.3520833333333333,3.28,0.7969458022765505,0
2.3541666666666665,3.28,0.7971394873547583,0
2.35625,3.27,0.7873505114600494,0
2.3583333333333334,3.26,0.777578852234357,0
2.3604166666666666,3.16,0.6778244868238957,0
2.3625,2.98,0.49808739188007706,0
2.3645833333333335,2.81,0.3283675435604433,0
2.3666666666666667,2.65,0.16866491752961216,0
2.36875,2.52,0.038979488960243086,0
2.370833333333333,2.42,-0.060688767465986004,0
2.372916666666667,2.35,-0.13033987755738097,0
2.375,2.3,-0.17997386761122508,0
2.377083333333333,2.27,-0.20959076441275132,0
2.379166666666667,2.25,-0.22919059523410729,0
2.38125,2.24,-0.23877338783329505,0
2.3833333333333333,2.25,-0.2283391704531037,0
2.3854166666666665,2.25,-0.22788797182001808,0
2.3875,2.26,-0.21741982114311942,0
2.3895833333333334,2.26,-0.2169347481129656,0
2.3916666666666666,2.27,-0.20643278290045985,0
2.39375,2.27,-0.20591395615570246,0
2.3958333333333335,2.28,-0.19537829900682568,0
2.3979166666666667,2.28,-0.19482584305881384,0
2.4,2.35,-0.12425662039230995,0
2.402083333333333,2.36,-0.11367066356240643,0
2.404166666666667,2.37,-0.1030680055974153,0
2.40625,2.38,-0.09244867999763265,0
2.408333333333333,2.39,-0.08181272073407966,0
2.410416666666667,2.4,-0.07116016224723212,0
2.4125,2.41,-0.06049103944573048,0
2.4145833333333333,2.42,-0.04980538770508108,0
2.4166666666666665,2.43,-0.03910324286633479,0
2.41875,2.44,-0.028384641234756716,0
2.4208333333333334,2.46,-0.007649619578475125,0
2.4229166666666666,2.47,0.003101784872881777,0
2.425,2.48,0.013869534429564234,0
2.4270833333333335,2.5,0.034653590943099895,0
2.4291666666666667,2.51,0.04545391580770097,0
2.43125,2.53,0.06627046996169197,0
2.433333333333333,2.54,0.07710321388895094,0
2.435416666666667,2.56,0.09795210762036513,0
2.4375,2.58,0.11881711073530511,0
2.439583333333333,2.6,0.139698182363109,0
2.441666666666667,2.62,0.16059528118458774,0
2.44375,2.63,0.17150836543354325,0
2.4458333333333333,2.65,0.19243739289830147,0
2.4479166666666665,2.67,0.21338232092326315,0
2.45,2.68,0.22434310641046645,0
2.4520833333333334,2.7,0.24531970582116713,0
2.4541666666666666,2.72,0.26631207517743516,0
2.45625,2.74,0.2873201700637644,0
2.4583333333333335,2.77,0.3183439456287019,0
2.4604166666666667,2.78,0.32938335658648665,0
2.4625,2.8,0.3504383572187092,0
2.464583333333333,2.82,0.37150890137598486,0
2.466666666666667,2.84,0.3925949424796423,0
2.46875,2.87,0.42369643352342523,0
2.470833333333333,2.89,0.44481332707520815,0
2.472916666666667,2.91,0.46594557527873454,0
2.475,2.93,0.48709312985536324,0
2.4770833333333333,2.94,0.4982559421058378,0
2.4791666666666665,2.96,0.5194339629120663,0
2.48125,2.97,0.5306271427389144,0
2.4833333333333334,2.98,0.541835431636017,0
2.4854166666666666,2.99,0.5530587792396053,0
2.4875,2.99,0.5542971347743448,0
2.4895833333333335,2.99,0.5555504470551942,0
2.4916666666666667,3.0,0.5668186644892741,0
2.49375,2.99,0.5581017350777562,0
2.495833333333333,3.0,0.5693996064177631,0
2.497916666666667,3.0,0.57071222570429,0
2.5,3.0,0.5720395397321353,0
2.502083333333333,3.0,0.57338149489785,0
2.504166666666667,2.99,0.5647380372017009,0
2.50625,2.99,0.566109112249646,0
2.5083333333333333,2.98,0.5574946652553261,0
2.5104166666666665,2.97,0.548894641042075,0
2.5125,2.96,0.5403089840449413,0
2.5145833333333334,2.94,0.5217376383127263,0
2.5166666666666666,2.93,0.5131805475100395,0
2.51875,2.92,0.504637654919362,0
2.5208333333333335,2.9,0.4861089034431313,0
2.5229166666666667,2.88,0.4675942356058335,0
2.525,2.86,0.4490935935561147,0
2.527083333333333,2.84,0.430606919068906,0
2.529166666666667,2.83,0.4221341535475655,0
2.53125,2.82,0.41367523802603157,0
2.533333333333333,2.8,0.39523011317099277,0
2.535416666666667,2.79,0.3867987192840706,0
2.5375,2.78,0.37838099630401434,0
2.5395833333333333,2.78,0.37997688380891426,0
2.5416666666666665,2.77,0.3715863210184248,0
2.54375,2.76,0.36320924679600586,0
2.5458333333333334,2.75,0.35484559965117674,0
2.5479166666666666,2.74,0.3464953177417755,0
2.55,2.73,0.3381583388762465,0
2.5520833333333335,2.73,0.3398346005159345,0
2.5541666666666667,2.71,0.32152403977739175,0
2.55625,2.71,0.3232265934346983,0
2.558333333333333,2.7,0.31494219792179756,0
2.560416666666667,2.69,0.3066707893348456,0
2.5625,2.68,0.29841230343457115,0
2.564583333333333,2.68,0.3001666756486516,0
2.566666666666667,2.67,0.2919338410741024,0
2.56875,2.66,0.2837137344796813,0
2.5708333333333333,2.65,0.2755062903082974,0
2.5729166666666665,2.65,0.2773114426794443,0
2.575,2.64,0.26912912539163686,0
2.5770833333333334,2.64,0.2709592719248657,0
2.5791666666666666,2.64,0.2728018154430635,0
2.58125,2.63,0.2646566887965819,0
2.5833333333333335,2.63,0.2665238245246839,0
2.5854166666666667,2.62,0.2584031548580454,0
2.5875,2.62,0.26029461172127033,0
2.589583333333333,2.61,0.2521981267354216,0
2.591666666666667,2.61,0.25411363122056146,0
2.59375,2.61,0.256041056198302,0
2.595833333333333,2.61,0.2579803323943693,0
2.597916666666667,2.61,0.25993139024118006,0
2.6,2.62,0.27189415988042914,0
2.6020833333333333,2.62,0.27386857116568913,0
2.6041666666666665,2.62,0.27585455366502226,0
2.60625,2.62,0.2778520366636024,0
2.6083333333333334,2.61,0.2698609491663497,0
2.6104166666666666,2.61,0.27188121990057523,0
2.6125,2.61,0.2739127773186362,0
2.6145833333333335,2.61,0.2759555496006033,0
2.6166666666666667,2.62,0.28800946465693966,0
2.61875,2.62,0.29007445013118893,0
2.620833333333333,2.62,0.2921504334026767,0
2.622916666666667,2.62,0.2942373415892215,0
2.625,2.62,0.2963351015498555,0
2.627083333333333,2.62,0.29844363988755684,0
2.629166666666667,2.62,0.30056288295199135,0
2.63125,2.62,0.3026927568422644,0
2.6333333333333333,2.62,0.3048331874096832,0
2.6354166666666665,2.62,0.3069841002605283,0
2.6375,2.62,0.3091454207588365,0
2.6395833333333334,2.62,0.3113170740291932,0
2.6416666666666666,2.62,0.31349898495953343,0
2.64375,2.61,0.3056910782039537,0
2.6458333333333335,2.61,0.30789327818553214,0
2.6479166666666667,2.61,0.3101055090991573,0
2.65,2.61,0.31232769491436696,0
2.652083333333333,2.61,0.3145597593781969,0
2.654166666666667,2.6,0.30680162601803757,0
2.65625,2.59,0.29905321814449853,0
2.658333333333333,2.58,0.2913144588542862,0
2.660416666666667,2.55,0.2635852710330818,0
2.6625,2.52,0.23586557735844033,0
2.6645833333333333,2.5,0.21815530030268426,0
2.6666666666666665,2.46,0.180454362135815,0
2.66875,2.43,0.15276268492842968,0
2.6708333333333334,2.41,0.1350801905546453,0
2.6729166666666666,2.39,0.11740680069503134,0
2.675,2.37,0.09974243683954723,0
2.6770833333333335,2.35,0.08208702029049006,0
2.6791666666666667,2.33,0.06444047216544888,0
2.68125,2.32,0.056802713400268434,0
2.683333333333333,2.31,0.04917366475201579,0
2.685416666666667,2.3,0.041553246801957905,0
2.6875,2.28,0.023941379958546477,0
2.689583333333333,2.27,0.01633798446040799,0
2.691666666666667,2.26,0.00874298037933835,0
2.69375,2.24,-0.008843712376690238,0
2.6958333333333333,2.23,-0.016422174060523986,0
2.6979166666666665,2.23,-0.01399248508280912,0
2.7,2.22,-0.021554726008971625,0
2.7020833333333334,2.21,-0.029108977556188825,0
2.7041666666666666,2.21,-0.02665532059035547,0
2.70625,2.2,-0.03419383612304433,0
2.7083333333333335,2.19,-0.04172460530846239,0
2.7104166666666667,2.19,-0.03924770944039707,0
2.7125,2.18,-0.04676322994916246,0
2.714583333333333,2.18,-0.044271248398538104,0
2.716666666666667,2.18,-0.04177184648270316,0
2.71875,2.18,-0.03926510602316685,0
2.720833333333333,2.18,-0.03675110896569206,0
2.722916666666667,2.17,-0.04422993737721495,0
2.725,2.17,-0.04170167344276063,0
2.7270833333333333,2.17,-0.03916639946235376,0
2.7291666666666665,2.16,-0.04662419784792557,0
2.73125,2.14,-0.06407515112021603,0
2.7333333333333334,2.12,-0.0815193419056714,0
2.7354166666666666,2.1,-0.09895685293333806,0
2.7375,2.08,-0.11638776703175374,0
2.7395833333333335,2.05,-0.14381216712583464,0
2.7416666666666667,2.02,-0.17123013623375846,0
2.74375,1.99,-0.19864175746384835,0
2.745833333333333,1.97,-0.21604711401144666,0
2.747916666666667,1.95,-0.23344628915578797,0
2.75,1.94,-0.24083936625687014,0
2.752083333333333,1.94,-0.23822642875232153,0
2.754166666666667,1.97,-0.20560756015426612,0
2.75625,2.04,-0.1329828440461873,0
2.7583333333333333,2.14,-0.030352364079788367,0
2.7604166666666665,2.28,0.11228379602814774,0
2.7625,2.45,0.2849255524989043,0
2.7645833333333334,2.63,0.4675728214949719,0
2.7666666666666666,2.84,0.680225519123203,0
2.76875,3.04,0.8828835614379568,0
2.7708333333333335,3.21,1.055546864444252,0
2.7729166666666667,3.27,1.1182153441009246,0
2.775,3.27,1.1208889163237759,0
2.777083333333333,3.27,1.1235674969887306,0
2.779166666666667,3.26,1.116251001934994,0
2.78125,3.2,1.058939346968212,0
2.783333333333333,3.05,0.911632447863626,0
2.785416666666667,2.86,0.724330220369239,0
2.7875,2.67,0.5370325802089708,0
2.7895833333333333,2.48,0.3497394430858243,0
2.7916666666666665,2.32,0.1924507246850456,0
2.79375,2.19,0.06516634067728447,0
2.7958333333333334,2.08,-0.042113793278244605,0
2.7979166666666666,2.0,-0.11938976153060135,0
2.8,1.95,-0.1666616484339558,0
2.8020833333333335,1.91,-0.203929538344432,0
2.8041666666666667,1.89,-0.221193515616945,0
2.80625,1.87,-0.23845366460204298,0
2.808333333333333,1.87,-0.23571006964275049,0
2.810416666666667,1.86,-0.24296281507140916,0
2.8125,1.85,-0.2502119852065228,0
2.814583333333333,1.84,-0.2574576643496055,0
2.816666666666667,1.84,-0.2546999367820289,0
2.81875,1.83,-0.2619388867618705,0
2.8208333333333333,1.83,-0.25917459852076585,0
2.8229166666666665,1.83,-0.25640715626076116,0
2.825,1.84,-0.24363664415116948,0
2.8270833333333334,1.84,-0.24086314632542785,0
2.8291666666666666,1.84,-0.23808674687795917,0
2.83125,1.84,-0.23530752986103565,0
2.8333333333333335,1.84,-0.23252557928164486,0
2.8354166666666667,1.85,-0.21974097909836068,0
2.8375,1.85,-0.21695381321821577,0
2.839583333333333,1.85,-0.21416416549357806,0
2.841666666666667,1.85,-0.21137211971903033,0
2.84375,1.86,-0.1985777596282532,0
2.845833333333333,1.86,-0.19578116889091218,0
2.847916666666667,1.87,-0.18298243110954893,0
2.85,1.87,-0.1801816298164752,0
2.8520833333333333,1.88,-0.16737884847067164,0
2.8541666666666665,1.89,-0.1545741704546899,0
2.85625,1.9,-0.1417676790715632,0
2.8583333333333334,1.91,-0.12895945754171814,0
2.8604166666666666,1.92,-0.11614958899989195,0
2.8625,1.93,-0.10333815649205524,0
2.8645833333333335,1.93,-0.10052524297233872,0
2.8666666666666667,1.94,-0.08771093129996624,0
2.86875,1.94,-0.08489530423619283,0
2.870833333333333,1.95,-0.07207844444124684,0
2.872916666666667,1.95,-0.06926043447127979,0
2.875,1.96,-0.05644135677532125,0
2.877083333333333,1.97,-0.04362129369223958,0
2.879166666666667,1.99,-0.02080032744771021,0
2.88125,2.0,-0.007978540151188679,0
2.8833333333333333,2.01,0.00484398620711049,0
2.8854166666666665,2.02,0.017667169759230245,0
2.8875,2.03,0.030490928762476166,0
2.8895833333333334,2.05,0.053315181602418216,0
2.8916666666666666,2.06,0.06613984679588303,0
2.89375,2.07,0.07896484299394063,0
2.8958333333333335,2.08,0.09179008898488578,0
2.8979166666666667,2.09,0.1046155036972079,0
2.9,2.1,0.11744100620256037,0
2.902083333333333,2.11,0.13026651571871367,0
2.904166666666667,2.12,0.14309195161250704,0
2.90625,2.12,0.14591723340278923,0
2.908333333333333,2.12,0.14874228076335377,0
2.910416666666667,2.12,0.15156701352586388,0
2.9125,2.12,0.15439135168277002,0
2.9145833333333333,2.13,0.16721521539021766,0
2.9166666666666665,2.13,0.1700385249709489,0
2.91875,2.13,0.17286120091719326,0
2.9208333333333334,2.12,0.16568316389354992,0
2.9229166666666666,2.12,0.16850433473986082,0
2.925,2.12,0.17132463447407725,0
2.9270833333333335,2.1,0.1541439842951141,0
2.9291666666666667,2.09,0.1469623055856969,0
2.93125,2.08,0.13977951991519572,0
2.933333333333333,2.06,0.1225955490424499,0
2.935416666666667,2.05,0.11541031491858711,0
2.9375,2.05,0.11822373968982836,0
2.939583333333333,2.03,0.10103574570028329,0
2.941666666666667,2.02,0.09384625549473785,0
2.94375,2.01,0.08665519182142806,0
2.9458333333333333,1.99,0.06946247763480759,0
2.9479166666666665,1.98,0.06226803609830045,0
2.95,1.96,0.045071790587046384,0
2.9520833333333334,1.94,0.027873664690633904,0
2.9541666666666666,1.92,0.010673582215818517,0
2.95625,1.9,-0.0065285328107663465,0
2.9583333333333335,1.88,-0.023732756139912714,0
2.9604166666666667,1.86,-0.04093916329715058,0
2.9625,1.84,-0.058147829580074584,0
2.964583333333333,1.82,-0.07535883005568098,0
2.966666666666667,1.8,-0.09257223955771768,0
2.96875,1.78,-0.1097881326840464,0
2.970833333333333,1.76,-0.1270065837940173,0
2.972916666666667,1.75,-0.1342276670058565,0
2.975,1.73,-0.1514514561940653,0
2.9770833333333333,1.72,-0.15867802498683137,0
2.9791666666666665,1.7,-0.17590744676345682,0
2.98125,1.69,-0.18313979465179506,0
2.9833333333333334,1.68,-0.19037514152570645,0
2.9854166666666666,1.67,-0.1976135600025233,0
2.9875,1.66,-0.20485512244052792,0
2.9895833333333335,1.65,-0.21209990093644615,0
2.9916666666666667,1.63,-0.22934796732295504,0
2.99375,1.61,-0.24659939316620466,0
2.995833333333333,1.6,-0.2538542497633519,0
2.997916666666667,1.58,-0.27111260814011184,0
3.0,1.57,-0.2783745390483201,0
3.002083333333333,1.55,-0.29564011296351467,0
3.004166666666667,1.54,-0.30290940008252754,0
3.00625,1.52,-0.3201824703210957,0
3.0083333333333333,1.52,-0.317459393311483,0
3.0104166666666665,1.5,-0.3347402384001197,0
3.0125,1.49,-0.34202507464525717,0
3.0145833333333334,1.48,-0.34931397081463855,0
3.0166666666666666,1.47,-0.35660699538318563,0
3.01875,1.47,-0.3539042165306979,0
3.0208333333333335,1.47,-0.3512057021395705,0
3.0229166666666667,1.47,-0.34851151979252637,0
3.025,1.45,-0.36582173677036656,0
3.027083333333333,1.45,-0.36313642004973573,0
3.029166666666667,1.45,-0.3604556363009048,0
3.03125,1.45,-0.3577794518855698,0
3.033333333333333,1.46,-0.3451079328546678,0
3.035416666666667,1.46,-0.34244114494620875,0
3.0375,1.46,-0.33977915358312527,0
3.0395833333333333,1.46,-0.3371220238711381,0
3.0416666666666665,1.46,-0.33446982059663855,0
3.04375,1.46,-0.33182260822459003,0
3.0458333333333334,1.45,-0.33918045089644544,0
3.0479166666666666,1.45,-0.3365434124280839,0
3.05,1.45,-0.3339115563077635,0
3.0520833333333335,1.45,-0.33128494569409295,0
3.0541666666666667,1.46,-0.3186636434140201,0
3.05625,1.46,-0.31604771196083814,0
3.058333333333333,1.46,-0.3134372134922113,0
3.060416666666667,1.47,-0.3008322098282181,0
3.0625,1.47,-0.2982327624494132,0
3.064583333333333,1.46,-0.30563893249490653,0
3.066666666666667,1.46,-0.30305078076046044,0
3.06875,1.45,-0.31046836769660896,0
3.0708333333333333,1.45,-0.307891753406794,0
3.0729166666666665,1.44,-0.31532099764552013,0
3.075,1.44,-0.3127561598165267,0
3.0770833333333334,1.43,-0.32019729897098104,0
3.0791666666666666,1.43,-0.31764447380568983,0
3.08125,1.42,-0.3250977426613304,0
3.0833333333333335,1.4,-0.342557163520701,0
3.0854166666666667,1.38,-0.36002279400699166,0
3.0875,1.36,-0.3774946913820727,0
3.089583333333333,1.33,-0.40497291254480605,0
3.091666666666667,1.31,-0.4224575140293718,0
3.09375,1.28,-0.44994855200361794,0
3.095833333333333,1.25,-0.4774460822674292,0
3.097916666666667,1.22,-0.5049501602511149,0
3.1,1.2,-0.5224608410138201,0
3.1020833333333333,1.17,-0.5499781792419537,0
3.1041666666666665,1.15,-0.5675022292476393,0
3.10625,1.14,-0.5750330449671841,0
3.1083333333333334,1.12,-0.5925706799595694,0
3.1104166666666666,1.1,-0.6101151874049622,0
3.1125,1.09,-0.6176666201032461,0
3.1145833333333335,1.08,-0.6252250304725739,0
3.1166666666666667,1.08,-0.6227904705479403,0
3.11875,1.08,-0.6203629919797765,0
3.120833333333333,1.08,-0.6179426460325649,0
3.122916666666667,1.07,-0.6255294835834744,0
3.125,1.07,-0.6231235551210186,0
3.127083333333333,1.06,-0.6307249107437334,0
3.129166666666667,1.06,-0.6283336001588768,0
3.13125,1.05,-0.6359496726811492,0
3.1333333333333333,1.05,-0.6335731772314347,0
3.1354166666666665,1.04,-0.6412041623355649,0
3.1375,1.03,-0.6488426761231035,0
3.1395833333333334,1.04,-0.636488766326152,0
3.1416666666666666,1.02,-0.654142480278179,0
3.14375,1.03,-0.6418038649128676,0
3.1458333333333335,1.02,-0.6494729667629877,0
3.1479166666666667,1.02,-0.6471498319592879,0
3.15,1.02,-0.6448345062294099,0
3.152083333333333,1.01,-0.652527034896824,0
3.154166666666667,1.01,-0.6502274628797879,0
3.15625,1.0,-0.6579358346903277,0
3.158333333333333,1.0,-0.6556521944332393,0
3.160416666666667,0.99,-0.6633765858051119,0
3.1625,0.98,-0.6711090520933729,0
3.1645833333333333,0.96,-0.6888496361753542,0
3.1666666666666665,0.94,-0.706598380517383,0
3.16875,0.91,-0.734355327173893,0
3.1708333333333334,0.88,-0.7621205177865578,0
3.1729166666666666,0.86,-0.7798939935834465,0
3.175,0.84,-0.7976757953782007,0
3.1770833333333335,0.82,-0.8154659635692346,0
3.1791666666666667,0.82,-0.8132645381389568,0
3.18125,0.82,-0.8110715586530128,0
3.183333333333333,0.86,-0.7688870642595513,0
3.185416666666667,0.93,-0.6967110936885135,0
3.1875,1.04,-0.5845436852509425,0
3.189583333333333,1.17,-0.45238487683831663,0
3.191666666666667,1.34,-0.2802347059219018,0
3.19375,1.53,-0.08809320955212996,0
3.1958333333333333,1.73,0.11403957564200451,0
3.1979166666666665,1.93,0.31616361345352373,0
3.2,2.11,0.498278868098021,0
3.2020833333333334,2.24,0.6303853042141978,0
3.2041666666666666,2.3,0.6924828868643758,0
3.20625,2.28,0.6745715815349933,0
3.2083333333333335,2.19,0.586651354137073,0
3.2104166666666667,2.06,0.45872217100666424,0
3.2125,1.9,0.3007839989052735,0
3.214583333333333,1.73,0.1328368050202685,0
3.216666666666667,1.53,-0.06511944303474315,0
3.21875,1.36,-0.233084777219553,0
3.220833333333333,1.21,-0.38105922906701506,0
3.222916666666667,1.09,-0.4990428296827291,0
3.225,1.0,-0.5870356097447491,0
3.2270833333333333,0.93,-0.6550375995033086,0
3.2291666666666665,0.89,-0.6930488287805737,0
3.23125,0.86,-0.7210693269704136,0
3.2333333333333334,0.83,-0.7490991230381964,0
3.2354166666666666,0.84,-0.7371382455206045,0
3.2375,0.84,-0.7351867225254738,0
3.2395833333333335,0.85,-0.7232445817316537,0
3.2416666666666667,0.85,-0.7213118503888888,0
3.24375,0.86,-0.7093885553177232,0
3.245833333333333,0.86,-0.7074747229094274,0
3.247916666666667,0.86,-0.7055703791259448,0
3.25,0.87,-0.6936755494998627,0
3.252083333333333,0.87,-0.6917902591344038,0
3.254166666666667,0.88,-0.6799145327034403,0
3.25625,0.89,-0.668048394451529,0
3.2583333333333333,0.9,-0.6561918681939685,0
3.2604166666666665,0.92,-0.6343449773168781,0
3.2625,0.92,-0.6325077447772973,0
3.2645833333333334,0.93,-0.6206801931033079,0
3.2666666666666666,0.94,-0.6088623443941774,0
3.26875,0.95,-0.5970542203205245,0
3.2708333333333335,0.96,-0.5852558421245067,0
3.2729166666666667,0.96,-0.5834672306200271,0
3.275,0.98,-0.5616884061929651,0
3.277083333333333,0.99,-0.5499193888014271,0
3.279166666666667,1.0,-0.5381601979760192,0
3.28125,1.01,-0.5264108528201394,0
3.283333333333333,1.02,-0.514671372010294,0
3.285416666666667,1.03,-0.5029417737964318,0
3.2875,1.05,-0.48122207600230305,0
3.2895833333333333,1.06,-0.4695122960258369,0
3.2916666666666665,1.07,-0.4578124508395395,0
3.29375,1.09,-0.4361225569909144,0
3.2958333333333334,1.1,-0.4244426306029023,0
3.2979166666666666,1.11,-0.41277268737434347,0
3.3,1.13,-0.3911127425804576,0
3.3020833333333335,1.15,-0.36946281107334755,0
3.3041666666666667,1.16,-0.3578229072825223,0
3.30625,1.18,-0.33619304521544,0
3.308333333333333,1.2,-0.31457323845807206,0
3.310416666666667,1.21,-0.302963500175487,0
3.3125,1.24,-0.27136384311245487,0
3.314583333333333,1.26,-0.24977427959407217,0
3.316666666666667,1.28,-0.22819482152640624,0
3.31875,1.3,-0.20662548039715867,0
3.3208333333333333,1.32,-0.18506626727635,0
3.3229166666666665,1.34,-0.16351719281702426,0
3.325,1.36,-0.14197826725597196,0
3.3270833333333334,1.37,-0.13044950041447534,0
3.3291666666666666,1.39,-0.10893090169906894,0
3.33125,1.41,-0.08742248010232267,0
3.3333333333333335,1.42,-0.0759242442036433,0
3.3354166666666667,1.43,-0.06443620217009516,0
3.3375,1.45,-0.04295836175724088,0
3.339583333333333,1.46,-0.0314907303100006,0
3.341666666666667,1.48,-0.01003331476353031,0
3.34375,1.49,0.0014138783558802492,0
3.345833333333333,1.49,0.0028508429298940152,0
3.347916666666667,1.5,0.014277573247190034,0
3.35,1.51,0.02569406400251173,0
3.3520833333333333,1.5,0.017100310295693255,0
3.3541666666666665,1.5,0.018496307630668896,0
3.35625,1.51,0.029882051914464247,0
3.3583333333333334,1.5,0.021257539456169927,0
3.3604166666666666,1.5,0.0226227669658966,0
3.3625,1.5,0.02397773155371008,0
3.3645833333333335,1.49,0.015322430728551661,0
3.3666666666666667,1.48,0.006656862397138252,0
3.36875,1.47,-0.002018975137154766,0
3.370833333333333,1.46,-0.01070508317542862,0
3.372916666666667,1.44,-0.029401462624412567,0
3.375,1.43,-0.03810811399763481,0
3.377083333333333,1.41,-0.05682503741660916,0
3.379166666666667,1.4,-0.06555223261203968,0
3.38125,1.38,-0.08428969892504379,0
3.3833333333333333,1.37,-0.0930374353083917,0
3.3854166666666665,1.36,-0.10179544032776366,0
3.3875,1.35,-0.11056371216302263,0
3.3895833333333334,1.33,-0.12934224860950405,0
3.3916666666666666,1.32,-0.138131047079325,0
3.39375,1.31,-0.1469301046027074,0
3.3958333333333335,1.3,-0.15573941782931955,0
3.3979166666666667,1.29,-0.16455898302963345,0
3.4,1.28,-0.17338879609629798,0
3.402083333333333,1.27,-0.18222885254552895,0
3.404166666666667,1.26,-0.19107914751851773,0
3.40625,1.25,-0.19993967578285327,0
3.408333333333333,1.24,-0.20881043173396152,0
3.410416666666667,1.23,-0.2176914093965599,0
3.4125,1.22,-0.226582602426128,0
3.4145833333333333,1.21,-0.2354840041103955,0
3.4166666666666665,1.19,-0.2543956073708445,0
3.41875,1.19,-0.25331740476422704,0
3.4208333333333334,1.18,-0.2622493884840993,0
3.4229166666666666,1.18,-0.2611915503623701,0
3.425,1.18,-0.2601438818708667,0
3.4270833333333335,1.17,-0.2691063741229142,0
3.4291666666666667,1.17,-0.26807901787493116,0
3.43125,1.17,-0.26706180352803793,0
3.433333333333333,1.16,-0.27605472112968216,0
3.435416666666667,1.16,-0.27505776037527807,0
3.4375,1.16,-0.27407091060986155,0
3.439583333333333,1.15,-0.28309416082976,0
3.441666666666667,1.13,-0.30212749968427466,0
3.44375,1.13,-0.3011709154773794,0
3.4458333333333333,1.12,-0.3102243961694328,0
3.4479166666666665,1.13,-0.29928792937890536,0
3.45,1.13,-0.2983615023841172,0
3.4520833333333334,1.13,-0.2974451021249951,0
3.4541666666666666,1.14,-0.28653871520483964,0
3.45625,1.15,-0.2756423278921078,0
3.4583333333333335,1.15,-0.274755926122209,0
3.4604166666666667,1.16,-0.2638794954993124,0
3.4625,1.17,-0.253013021298171,0
3.464583333333333,1.17,-0.25215648846595684,0
3.466666666666667,1.18,-0.2413098816241102,0
3.46875,1.18,-0.24047318507020132,0
3.470833333333333,1.19,-0.2296463827798061,0
3.472916666666667,1.2,-0.2188294584083944,0
3.475,1.2,-0.2180223952932302,0
3.4770833333333333,1.21,-0.20722517645528382,0
3.4791666666666665,1.23,-0.18643778460115756,0
3.48125,1.23,-0.18566020212502304,0
3.4833333333333334,1.24,-0.17489241111057136,0
3.4854166666666666,1.25,-0.16413439333297508,0
3.4875,1.25,-0.16338613026086268,0
3.4895833333333335,1.26,-0.15264760305830294,0
3.4916666666666667,1.27,-0.14191879258680234,0
3.49375,1.27,-0.14119967940731504,0
3.495833333333333,1.28,-0.13049024378226237,0
3.497916666666667,1.29,-0.1197904656775643,0
3.5,1.3,-0.10910032476468162,0
3.502083333333333,1.31,-0.09841980042267057,0
3.504166666666667,1.31,-0.09774887174024743,0
3.50625,1.32,-0.08708751751786376,0
3.5083333333333333,1.32,-0.08643571626979218,0
3.5104166666666665,1.33,-0.07579344622622353,0
3.5125,1.33,-0.07516068533537318,0
3.5145833333333334,1.33,-0.07453741126559837,0
3.5166666666666666,1.33,-0.07392360140752519,0
3.51875,1.32,-0.08331923287618664,0
3.5208333333333335,1.32,-0.08272428251316866,0
3.5229166666666667,1.3,-0.10213872688876724,0
3.525,1.28,-0.12156254230415425,0
3.527083333333333,1.26,-0.14099570479355378,0
3.529166666666667,1.24,-0.1604381901264274,0
3.53125,1.21,-0.18988997380966788,0
3.533333333333333,1.19,-0.20935103108980263,0
3.535416666666667,1.18,-0.2188213369552064,0
3.5375,1.16,-0.23830086613832177,0
3.5395833333333333,1.15,-0.247789593117889,0
3.5416666666666665,1.14,-0.2572874921211835,0
3.54375,1.12,-0.2767945371262624,0
3.5458333333333334,1.12,-0.2763107018642198,0
3.5479166666666666,1.11,-0.2858359598214475,0
3.55,1.1,-0.29537028424190603,0
3.5520833333333335,1.1,-0.2949136481294039,0
3.5541666666666667,1.1,-0.29446602424988233,0
3.55625,1.1,-0.29402738513370974,0
3.558333333333333,1.1,-0.2935977030779818,0
3.560416666666667,1.11,-0.28317695014883065,0
3.5625,1.12,-0.27276509818373934,0
3.564583333333333,1.12,-0.27236211879386385,0
3.566666666666667,1.12,-0.2719679833663608,0
3.56875,1.12,-0.2715826630667237,0
3.5708333333333333,1.12,-0.27120612884112416,0
3.5729166666666665,1.13,-0.26083835141876044,0
3.575,1.13,-0.2604793013142111,0
3.5770833333333334,1.13,-0.2601289488297974,0
3.5791666666666666,1.13,-0.2597872640579483,0
3.58125,1.14,-0.24945421688357253,0
3.5833333333333335,1.14,-0.2491297769864367,0
3.5854166666666667,1.15,-0.23881391384354766,0
3.5875,1.15,-0.2385065967315404,0
3.589583333333333,1.15,-0.23820779472907122,0
3.591666666666667,1.15,-0.23791747671921623,0
3.59375,1.14,-0.24763561139187384,0
3.595833333333333,1.13,-0.257362167246172,0
3.597916666666667,1.11,-0.27709711259288056,0
3.6,1.1,-0.2868404155568269,0
3.6020833333333333,1.08,-0.30659204407931673,0
3.6041666666666665,1.08,-0.30635196592055797,0
3.60625,1.06,-0.326120148662089,0
3.6083333333333334,1.06,-0.3258965597092093,0
3.6104166666666666,1.06,-0.3256811662934148,0
3.6125,1.07,-0.31547393547483665,0
3.6145833333333335,1.09,-0.29527483414468336,0
3.6166666666666667,1.14,-0.24508382902768522,0
3.61875,1.23,-0.1549008866845411,0
3.620833333333333,1.34,-0.04472597351436891,0
3.622916666666667,1.49,0.10544094424284389,0
3.625,1.67,0.28559990050378425,0
3.627083333333333,1.86,0.4757509293393576,0
3.629166666666667,2.07,0.6858940649722275,0
3.63125,2.27,0.8860293417743594,0
3.6333333333333333,2.42,1.0361567942645526,0
3.6354166666666665,2.51,1.1262764571059816,0
3.6375,2.53,1.1463883651037283,0
3.6395833333333334,2.48,1.0964925532023186,0
3.6416666666666666,2.37,0.9865890564832542,0
3.64375,2.23,0.8466779101625477,0
3.6458333333333335,2.06,0.6767591495882515,0
3.6479166666666667,1.88,0.49683281023799286,0
3.65,1.2,-0.18310107228349465,0
3.652083333333333,1.14,-0.24304246224683834,0
3.654166666666667,1.11,-0.27299132380049496,0
3.65625,1.09,-0.2929476209732181,0
3.658333333333333,1.08,-0.30291131767652507,0
3.660416666666667,1.08,-0.30288237770716564,0
3.6625,1.09,-0.29286076474958855,0
3.6645833333333333,1.1,-0.28284644237840745,0
3.6666666666666665,1.11,-0.272839374060867,0
3.66875,1.12,-0.2628395231593058,0
3.6708333333333334,1.14,-0.2428468529336219,0
3.6729166666666666,1.15,-0.23286132654373146,0
3.675,1.17,-0.21288290705203128,0
3.6770833333333335,1.19,-0.1929115574258553,0
3.6791666666666667,1.2,-0.18294724053993372,0
3.68125,1.22,-0.1629899191788467,0
3.683333333333333,1.23,-0.15303955603947902,0
3.685416666666667,1.25,-0.1330961137334692,0
3.6875,1.25,-0.13315955478965774,0
3.689583333333333,1.26,-0.12322984165653189,0
3.691666666666667,1.28,-0.10330693670466823,0
3.69375,1.29,-0.09339080222917386,0
3.6958333333333333,1.3,-0.08348140045212324,0
3.6979166666666665,1.31,-0.07357869352499237,0
3.7,1.33,-0.05368264353108925,0
3.7020833333333334,1.34,-0.04379321248798125,0
3.7041666666666666,1.35,-0.03391036234991751,0
3.70625,1.37,-0.014034055010250346,0
3.7083333333333335,1.38,-0.004164252303849994,0
3.7104166666666667,1.39,0.0056990839904845145,0
3.7125,1.4,0.015555992147615952,0
3.714583333333333,1.42,0.03540651049366744,0
3.716666666666667,1.44,0.05525067740362272,0
3.71875,1.46,0.07508853129893343,0
3.720833333333333,1.48,0.09492011064513145,0
3.722916666666667,1.5,0.11474545394944266,0
3.725,1.51,0.12456459975841117,0
3.7270833333333333,1.52,0.1343775866555241,0
3.7291666666666665,1.53,0.14418445325884494,0
3.73125,1.55,0.16398523821865174,0
3.7333333333333334,1.56,0.17377998021508323,0
3.7354166666666666,1.58,0.19356871795578673,0
3.7375,1.6,0.2133514901735752,0
3.7395833333333335,1.62,0.23312833562408894,0
3.7416666666666667,1.64,0.2528992930834661,0
3.74375,1.66,0.2726644013460169,0
3.745833333333333,1.68,0.2924236992219059,0
3.747916666666667,1.7,0.3121772255348422,0
3.75,1.73,0.34192501911977535,0
3.752083333333333,1.75,0.3616671188205989,0
3.754166666666667,1.77,0.38140356348786236,0
3.75625,1.8,0.4111343919764899,0
3.7583333333333333,1.82,0.4308596431435043,0
3.7604166666666665,1.84,0.45057935584576364,0
3.7625,1.87,0.4802935689377036,0
3.7645833333333334,1.89,0.5000023212690883,0
3.7666666666666666,1.92,0.529705651682769,0
3.76875,1.94,0.5494035990124471,0
3.7708333333333335,1.95,0.5590962020804522,0
3.7729166666666667,1.96,0.568783499695527,0
3.775,1.98,0.5884655306506201,0
3.777083333333333,1.99,0.5981423337206866,0
3.779166666666667,2.0,0.6078139476604998,0
3.78125,2.01,0.6174804112024714,0
3.783333333333333,2.02,0.6271417630544809,0
3.785416666666667,2.02,0.6267980418977115,0
3.7875,2.03,0.6364492863844999,0
3.7895833333333333,2.03,0.6360955351361941,0
3.7916666666666665,2.02,0.6257368267410209,0
3.79375,2.01,0.615373199751964,0
3.7958333333333334,2.0,0.6050046926846535,0
3.7979166666666666,1.99,0.594631344015262,0
3.8,1.98,0.5842531921784161,0
3.8020833333333335,1.97,0.5738702755651133,0
3.8041666666666667,1.96,0.563482632520654,0
3.80625,1.95,0.5530903013425804,0
3.808333333333333,1.94,0.5426933202786257,0
3.810416666666667,1.92,0.5222917275246769,0
3.8125,1.9,0.501885561222747,0
3.814583333333333,1.89,0.4914748594589578,0
3.816666666666667,1.87,0.47105966026153506,0
3.81875,1.86,0.4606400015988125,0
3.8208333333333333,1.84,0.4402159213772502,0
3.8229166666666665,1.83,0.42978745743946295,0
3.825,1.81,0.4093546475622591,0
3.8270833333333334,1.8,0.39891752945469355,0
3.8291666666666666,1.79,0.3884761407561284,0
3.83125,1.77,0.36803051903430833,0
3.8333333333333335,1.76,0.35758070178344714,0
3.8354166666666667,1.75,0.3471267264223273,0
3.8375,1.74,0.3366686302924091,0
3.839583333333333,1.73,0.32620645065595333,0
3.841666666666667,1.72,0.31574022469415364,0
3.84375,1.72,0.315269989505285,0
3.845833333333333,1.71,0.3047957821028627,0
3.847916666666667,1.7,0.2943176394138143,0
3.85,1.69,0.2838355982766624,0
3.8520833333333333,1.68,0.27334969543971993,0
3.8541666666666665,1.68,0.27285996755930053,0
3.85625,1.67,0.2623664511979395,0
3.8583333333333334,1.65,0.24186918282262765,0
3.8604166666666666,1.64,0.23136819880305798,0
3.8625,1.64,0.23086353540988602,0
3.8645833333333335,1.63,0.22035522881300212,0
3.8666666666666667,1.63,0.21984331507981758,0
3.86875,1.62,0.20932783017356338,0
3.870833333333333,1.62,0.20880880995160023,0
3.872916666666667,1.61,0.19828629016374494,0
3.875,1.61,0.1977603064506076,0
3.877083333333333,1.61,0.19723089434194369,0
3.879166666666667,1.61,0.19669808925501947,0
3.88125,1.62,0.20616192649298876,0
3.8833333333333333,1.63,0.21562244124328483,0
3.8854166666666665,1.63,0.21507966857602584,0
3.8875,1.63,0.21453364344243236,0
3.8895833333333334,1.63,0.2139844006732609,0
3.8916666666666666,1.64,0.22343197497724981,0
3.89375,1.64,0.22287640093958033,0
3.8958333333333335,1.65,0.23231771302034937,0
3.8979166666666667,1.66,0.24175594555305746,0
3.9,1.67,0.2511911327431083,0
3.902083333333333,1.67,0.2506233086663251,0
3.904166666666667,1.68,0.2600525072674812,0
3.90625,1.68,0.25947876235884393,0
3.908333333333333,1.68,0.2589021076187312,0
3.910416666666667,1.68,0.2583225765900843,0
3.9125,1.69,0.26774020267905385,0
3.9145833333333333,1.7,0.27715501915359925,0
3.9166666666666665,1.71,0.2865670591421039,0
3.91875,1.72,0.2959763556320036,0
3.9208333333333334,1.72,0.2953829414684315,0
3.9229166666666666,1.73,0.3047868493528754,0
3.925,1.74,0.31418811184185097,0
3.9270833333333335,1.74,0.3135867613455872,0
3.9291666666666667,1.75,0.32298283012672846,0
3.93125,1.74,0.3123763502990502,0
3.933333333333333,1.75,0.3217673538261933,0
3.935416666666667,1.76,0.33115587252040685,0
3.9375,1.77,0.3405419380413113,0
3.939583333333333,1.78,0.3499255818946711,0
3.941666666666667,1.79,0.35930683543118686,0
3.94375,1.8,0.3686857298452996,0
3.9458333333333333,1.8,0.36806229617401265,0
3.9479166666666665,1.8,0.36743656529572494,0
3.95,1.8,0.3668085679290805,0
3.9520833333333334,1.79,0.35617833463183396,0
3.9541666666666666,1.78,0.3455458957997306,0
3.95625,1.77,0.3349112816654015,0
3.9583333333333335,1.75,0.3142745222972729,0
3.9604166666666667,1.73,0.2936356475984902,0
3.9625,1.71,0.27299468730585974,0
3.964583333333333,1.69,0.2523516709888025,0
3.966666666666667,1.66,0.22170662804832636,0
3.96875,1.64,0.20105958771600962,0
3.970833333333333,1.62,0.18041057905300228,0
3.972916666666667,1.6,0.15975963094904178,0
3.975,1.59,0.14910677212148626,0
3.9770833333333333,1.58,0.13845203111436066,0
3.9791666666666665,1.56,0.11779543629741784,0
3.98125,1.56,0.11713701586521608,0
3.9833333333333334,1.55,0.10647679783621344,0
3.9854166666666666,1.55,0.1058148100518751,0
3.9875,1.55,0.105151080175794,0
3.9895833333333335,1.54,0.09448563569283175,0
3.9916666666666667,1.53,0.08381850390827073,0
3.99375,1.52,0.07314971194698427,0
3.995833333333333,1.52,0.07247928675262227,0
3.997916666666667,1.52,0.07180725508681174,0
4.0,1.52,0.07113364352837181,0
4.002083333333333,1.52,0.07045847847254427,0
4.004166666666666,1.52,0.06978178613024122,0
4.00625,1.53,0.07910359252730603,0
4.008333333333334,1.54,0.08842392350379091,0
4.010416666666667,1.54,0.08774280471324825,0
4.0125,1.54,0.08706026162203895,0
4.014583333333333,1.54,0.0863763195086551,0
4.016666666666667,1.54,0.08569100346306102,0
4.01875,1.54,0.08500433838604748,0
4.020833333333333,1.54,0.08431634898860041,0
4.022916666666666,1.54,0.08362705979128737,0
4.025,1.54,0.08293649512365975,0
4.027083333333334,1.54,0.08224467912366973,0
4.029166666666667,1.54,0.08155163573710444,0
4.03125,1.52,0.060857388717032834,0
4.033333333333333,1.51,0.050161961623270024,0
4.035416666666666,1.49,0.029465377821856542,0
4.0375,1.46,-0.0012323395154456573,0
4.039583333333334,1.44,-0.021931167411644692,0
4.041666666666667,1.42,-0.04263108308499075,0
4.04375,1.41,-0.05333206394943413,0
4.045833333333333,1.41,-0.05403408761506834,0
4.047916666666667,1.42,-0.04473713188855677,0
4.05,1.45,-0.015441174773544009,0
4.052083333333333,1.5,0.033853805528948344,0
4.054166666666666,1.57,0.10314783062014243,0
4.05625,1.67,0.2024409219031389,0
4.058333333333334,1.79,0.3217331005825697,0
4.060416666666667,1.95,0.48102438766426275,0
4.0625,2.13,0.6603148039549277,0
4.064583333333333,2.33,0.8596043700618536,0
4.066666666666666,2.76,1.2888931063926206,0
4.06875,2.65,1.1781810331548321,0
4.070833333333334,2.52,1.0474681703558582,0
4.072916666666667,2.36,0.886754537802599,0
4.075,2.17,0.6960401551012642,0
4.077083333333333,1.99,0.5153250416571605,0
4.079166666666667,1.84,0.3646092166745047,0
4.08125,1.7,0.22389269915624677,0
4.083333333333333,1.59,0.11317550790391206,0
4.085416666666666,1.51,0.03245766151745444,0
4.0875,1.46,-0.018260821604871635,0
4.089583333333334,1.42,-0.05897992326662338,0
4.091666666666667,1.41,-0.06969962547326947,0
4.09375,1.4,-0.08041991043227181,0
4.095833333333333,1.4,-0.08114076055315123,0
4.097916666666666,1.4,-0.08186215844753675,0
4.1,1.42,-0.06258408692920192,0
4.102083333333334,1.43,-0.05330652901408539,0
4.104166666666667,1.44,-0.04402946792029638,0
4.10625,1.45,-0.034752887068102645,0
4.108333333333333,1.46,-0.025476770079905675,0
4.110416666666667,1.47,-0.01620110078019832,0
4.1125,1.47,-0.016925863195508706,0
4.114583333333333,1.48,-0.0076510415543254995,0
4.116666666666666,1.49,0.0016233797129873162,0
4.11875,1.51,0.02089741597429451,0
4.120833333333334,1.52,0.03017108239580646,0
4.122916666666667,1.53,0.03944439394221311,0
4.125,1.54,0.04871736537683191,0
4.127083333333333,1.55,0.057990011261771834,0
4.129166666666666,1.56,0.06726234595811353,0
4.13125,1.57,0.07653438362610088,0
4.133333333333334,1.58,0.08580613822535321,0
4.135416666666667,1.59,0.0950776235150887,0
4.1375,1.61,0.11434885305436387,0
4.139583333333333,1.62,0.1236198402023293,0
4.141666666666667,1.64,0.14289059811849808,0
4.14375,1.65,0.15216113976303264,0
4.145833333333333,1.67,0.17143147789704316,0
4.147916666666666,1.68,0.18070162508290405,0
4.15,1.69,0.18997159368458427,0
4.152083333333334,1.7,0.19924139586799017,0
4.154166666666667,1.71,0.20851104360132566,0
4.15625,1.72,0.2177805486554672,0
4.158333333333333,1.73,0.22704992260435314,0
4.160416666666666,1.74,0.23631917682538955,0
4.1625,1.75,0.2455883224998684,0
4.164583333333334,1.76,0.25485737061340225,0
4.166666666666667,1.78,0.2741263319563745,0
4.16875,1.79,0.2833952171244021,0
4.170833333333333,1.8,0.29266403651881495,0
4.172916666666667,1.82,0.31193280034714893,0
4.175,1.84,0.3312015186236544,0
4.177083333333333,1.86,0.35047020116981686,0
4.179166666666666,1.88,0.36973885761489644,0
4.18125,1.89,0.37900749739647766,0
4.183333333333334,1.92,0.4082761297610338,0
4.185416666666667,1.94,0.4275447637645089,0
4.1875,1.96,0.44681340827291316,0
4.189583333333333,1.99,0.4760820719629332,0
4.191666666666666,2.02,0.5053507633225548,0
4.19375,2.04,0.5246194906517024,0
4.195833333333334,2.07,0.5538882620628894,0
4.197916666666667,2.09,0.5731570854818868,0
4.2,2.1,0.5824259686484035,0
4.202083333333333,2.12,0.6016949191167815,0
4.204166666666667,2.13,0.610963944256704,0
4.20625,2.14,0.620233051253922,0
4.208333333333333,2.15,0.6295022471109869,0
4.210416666666666,2.16,0.6387715386480056,0
4.2125,2.17,0.6480409325034031,0
4.214583333333334,2.17,0.6473104351347044,0
4.216666666666667,2.17,0.646580052819323,0
4.21875,2.16,0.6358497916553666,0
4.220833333333333,2.16,0.6351196575624596,0
4.222916666666666,2.16,0.6343896562825768,0
4.225,2.16,0.6336597933808911,0
4.227083333333334,2.16,0.6329300742466324,0
4.229166666666667,2.16,0.6322005040939627,0
4.23125,2.15,0.6214710879628629,0
4.233333333333333,2.14,0.6107418307200322,0
4.235416666666667,2.12,0.5900127370597993,0
4.2375,2.1,0.5692838115050495,0
4.239583333333333,2.08,0.5485550584081642,0
4.241666666666666,2.06,0.5278264819519725,0
4.24375,2.05,0.5170980861507167,0
4.245833333333334,2.03,0.4963698748510274,0
4.247916666666667,2.01,0.475641851732913,0
4.25,1.99,0.45491402031076356,0
4.252083333333333,1.97,0.43418638393436676,0
4.254166666666666,1.96,0.42345894578993515,0
4.25625,1.94,0.4027317089011431,0
4.258333333333334,1.92,0.382004676130178,0
4.260416666666667,1.9,0.3612778501788043,0
4.2625,1.88,0.34055123358943784,0
4.264583333333333,1.86,0.319824828746234,0
4.266666666666667,1.84,0.299098637876184,0
4.26875,1.83,0.2883726630502259,0
4.270833333333333,1.82,0.27764690618436505,0
4.272916666666666,1.8,0.25692136904080815,0
4.275,1.74,0.1961960532291045,0
4.277083333333334,1.74,0.1954709602073016,0
4.279166666666667,1.74,0.19474609128311027,0
4.28125,1.73,0.18402144761508143,0
4.283333333333333,1.72,0.17329703021379317,0
4.285416666666666,1.72,0.17257283994304873,0
4.2875,1.71,0.161848877521085,0
4.289583333333334,1.7,0.1511251435217914,0
4.291666666666667,1.69,0.14040163837593955,0
4.29375,1.69,0.13967836237242193,0
4.295833333333333,1.68,0.12895531565949936,0
4.297916666666667,1.67,0.11823249824606097,0
4.3,1.67,0.11750991000289523,0
4.302083333333333,1.66,0.10678755066396761,0
4.304166666666666,1.65,0.09606541982770833,0
4.30625,1.64,0.08534351695830922,0
4.308333333333334,1.64,0.08462184138702966,0
4.310416666666667,1.63,0.07390039231351342,0
4.3125,1.63,0.07317916880711384,0
4.314583333333333,1.64,0.08245816980822696,0
4.316666666666666,1.64,0.08173739412963366,0
4.31875,1.64,0.08101684045785207,0
4.320833333333334,1.64,0.08029650735449845,0
4.322916666666667,1.65,0.08957639325765487,0
4.325,1.66,0.09885649648324513,0
4.327083333333333,1.65,0.08813681522641703,0
4.329166666666667,1.66,0.09741734756293641,0
4.33125,1.66,0.09669809145058728,0
4.333333333333333,1.66,0.09597904473058044,0
4.335416666666666,1.65,0.08526020512896981,0
4.3375,1.66,0.09454157025807675,0
4.339583333333334,1.66,0.09382313761792205,0
4.341666666666667,1.66,0.09310490459766463,0
4.34375,1.67,0.10238686847704598,0
4.345833333333333,1.67,0.10166902642784248,0
4.347916666666666,1.68,0.11095137551532747,0
4.35,1.68,0.11023391269973809,0
4.352083333333334,1.68,0.10951663483774643,0
4.354166666666667,1.68,0.10879953868394066,0
4.35625,1.68,0.10808262089230997,0
4.358333333333333,1.68,0.10736587801773628,0
4.360416666666667,1.68,0.10664930651749316,0
4.3625,1.68,0.10593290275275014,0
4.364583333333333,1.68,0.10521666299008353,0
4.366666666666666,1.68,0.10450058340299223,0
4.36875,1.68,0.10378466007342008,0
4.370833333333334,1.68,0.10306888899328276,0
4.372916666666667,1.68,0.10235326606599993,0
4.375,1.67,0.09163778710803305,0
4.377083333333333,1.67,0.09092244785042769,0
4.379166666666666,1.67,0.0902072439403615,0
4.38125,1.66,0.07949217094269856,0
4.383333333333334,1.66,0.07877722434154527,0
4.385416666666667,1.65,0.06806239954181031,0
4.3875,1.64,0.057347691870770545,0
4.389583333333333,1.62,0.03663309657964192,0
4.391666666666667,1.61,0.025918608845154345,0
4.39375,1.58,-0.004795776228868176,0
4.395833333333333,1.56,-0.02551006360992525,0
4.397916666666666,1.53,-0.05622425833525341,0
4.4,1.52,-0.06693836551023669,0
4.402083333333334,1.5,-0.08765239030681388,0
4.404166666666667,1.48,-0.10836633796188,0
4.40625,1.47,-0.11908021377568812,0
4.408333333333333,1.45,-0.1397940231102469,0
4.410416666666666,1.44,-0.15050777138771387,0
4.4125,1.42,-0.17122146408878713,0
4.414583333333334,1.41,-0.18193510675109492,0
4.416666666666667,1.4,-0.19264870496758268,0
4.41875,1.39,-0.20336226438489557,0
4.420833333333333,1.39,-0.20407579070175996,0
4.422916666666667,1.38,-0.21478928966736233,0
4.425,1.38,-0.21550276707972638,0
4.427083333333333,1.38,-0.2162162287840912,0
4.429166666666666,1.38,-0.2169296806712846,0
4.43125,1.37,-0.2276431286760956,0
4.433333333333334,1.37,-0.22835657877564475,0
4.435416666666667,1.36,-0.2390700369877511,0
4.4375,1.36,-0.23978350936930026,0
4.439583333333333,1.36,-0.24049700201461233,0
4.441666666666666,1.36,-0.24121052105380802,0
4.44375,1.35,-0.25192407265117456,0
4.445833333333334,1.36,-0.24263766300352863,0
4.447916666666667,1.35,-0.2533512983385826,0
4.45,1.35,-0.25406498491330565,0
4.452083333333333,1.35,-0.2547787290122911,0
4.454166666666667,1.35,-0.2554925369461173,0
4.45625,1.34,-0.26620641504971054,0
4.458333333333333,1.34,-0.26692036968070837,0
4.460416666666666,1.33,-0.27763440721782096,0
4.4625,1.31,-0.2983485340591962,0
4.464583333333334,1.3,-0.3090627566207804,0
4.466666666666667,1.28,-0.32977708133468303,0
4.46875,1.26,-0.350491514647541,0
4.470833333333333,1.24,-0.37120606301888526,0
4.472916666666666,1.22,-0.3919207329195077,0
4.475,1.21,-0.40263553082982695,0
4.477083333333334,1.19,-0.42335046323825676,0
4.479166666666667,1.19,-0.4240655366395747,0
4.48125,1.2,-0.41478075753329374,0
4.483333333333333,1.74,0.12450386757796716,0
4.485416666666667,1.93,0.31378833219010727,0
4.4875,2.13,0.5130726297991729,0
4.489583333333333,2.33,0.7123567539029793,0
4.491666666666666,2.49,0.8716406980027304,0
4.49375,2.59,0.9709244556046406,0
4.495833333333334,2.62,1.000208020221553,0
4.497916666666667,2.58,0.9594913853745528,0
4.5,2.47,0.8487745445945849,0
4.502083333333333,2.32,0.6980574914240629,0
4.504166666666666,2.15,0.5273402194184804,0
4.50625,1.95,0.3266227221480128,0
4.508333333333334,1.76,0.13590499319912344,0
4.510416666666667,1.59,-0.03481297382383422,0
4.5125,1.45,-0.17553118529702028,0
4.514583333333333,1.34,-0.2862496475755126,0
4.516666666666667,1.26,-0.36696836699171476,0
4.51875,1.2,-0.42768734985376733,0
4.520833333333333,1.16,-0.46840660244396215,0
4.522916666666666,1.15,-0.4791261310171627,0
4.525,1.14,-0.4898459417992259,0
4.527083333333334,1.13,-0.5005660409854257,0
4.529166666666667,1.14,-0.49128643473888456,0
4.53125,1.14,-0.49200712918900735,0
4.533333333333333,1.15,-0.4827281304299206,0
4.535416666666666,1.17,-0.4634494445189137,0
4.5375,1.18,-0.4541710774748865,0
4.539583333333334,1.18,-0.4548930352768002,0
4.541666666666667,1.2,-0.43561532386213236,0
4.54375,1.22,-0.4163379491253387,0
4.545833333333333,1.23,-0.407060916916321,0
4.547916666666667,1.24,-0.39778423303889554,0
4.55,1.25,-0.3885079032492689,0
4.552083333333333,1.26,-0.37923193325451887,0
4.554166666666666,1.27,-0.3699563287110812,0
4.55625,1.28,-0.3606810952232412,0
4.558333333333334,1.29,-0.3514062383416298,0
4.560416666666667,1.3,-0.3421317635617267,0
4.5625,1.31,-0.33285767632236885,0
4.564583333333333,1.32,-0.32358398200426364,0
4.566666666666666,1.33,-0.3143106859285099,0
4.56875,1.33,-0.31503779335512405,0
4.570833333333334,1.34,-0.30576530948157143,0
4.572916666666667,1.35,-0.29649323944130423,0
4.575,1.36,-0.28722158830230704,0
4.577083333333333,1.37,-0.2779503610656483,0
4.579166666666667,1.37,-0.27867956266403593,0
4.58125,1.38,-0.26940919796038165,0
4.583333333333333,1.4,-0.2501392717463706,0
4.585416666666666,1.41,-0.24086978874103962,0
4.5875,1.42,-0.23160075358936028,0
4.589583333333334,1.43,-0.22233217086083162,0
4.591666666666667,1.45,-0.20306404504807693,0
4.59375,1.46,-0.19379638056544934,0
4.595833333333333,1.47,-0.184529181747642,0
4.597916666666666,1.49,-0.16526245284830954,0
4.6,1.5,-0.15599619803869189,0
4.602083333333334,1.52,-0.13673042140624853,0
4.604166666666667,1.53,-0.12746512695329978,0
4.60625,1.54,-0.11820031859567588,0
4.608333333333333,1.56,-0.09893600016137406,0
4.610416666666667,1.57,-0.08967217538922187,0
4.6125,1.59,-0.07040884792755024,0
4.614583333333333,1.6,-0.06114602133287264,0
4.616666666666666,1.62,-0.041883699068573726,0
4.61875,1.64,-0.022621884503603862,0
4.620833333333334,1.67,0.006639419088817572,0
4.622916666666667,1.69,0.025900208532489172,0
4.625,1.72,0.055160480749509216,0
4.627083333333333,1.73,0.06442023276154513,0
4.629166666666666,1.75,0.0836794616910978,0
4.63125,1.77,0.10293816476275436,0
4.633333333333334,1.78,0.11219633930443673,0
4.635416666666667,1.79,0.12145398274863817,0
4.6375,1.81,0.1407110926336524,0
4.639583333333333,1.82,0.14996766660479516,0
4.641666666666667,1.82,0.1492237024156131,0
4.64375,1.83,0.1584791979290872,0
4.645833333333333,1.84,0.16773415111882578,0
4.647916666666666,1.85,0.17698856007025082,0
4.65,1.85,0.17624242298177228,0
4.652083333333334,1.85,0.17549573816595404,0
4.654166666666667,1.84,0.16474850405066832,0
4.65625,1.83,0.15400071918024488,0
4.658333333333333,1.82,0.1432523822166074,0
4.660416666666666,1.82,0.1425034919404038,0
4.6625,1.82,0.1417540472521216,0
4.664583333333334,1.81,0.1310040471731974,0
4.666666666666667,1.81,0.13025349084711624,0
4.66875,1.8,0.11950237754050141,0
4.670833333333333,1.79,0.10875070664419317,0
4.672916666666667,1.77,0.08799847767431848,0
4.675,1.76,0.07724569027334882,0
4.677083333333333,1.74,0.05649234421114882,0
4.679166666666666,1.72,0.03573843938601348,0
4.68125,1.7,0.014983975825694856,0
4.683333333333334,1.68,-0.005771046311578182,0
4.685416666666667,1.66,-0.02652662673609585,0
4.6875,1.65,-0.03728276502566982,0
4.689583333333333,1.64,-0.04803946062464996,0
4.691666666666666,1.56,-0.12879671284294908,0
4.69375,1.55,-0.1395545208550795,0
4.695833333333334,1.54,-0.15031288369919868,0
4.697916666666667,1.53,-0.16107180027617096,0
4.7,1.52,-0.1718312693486371,0
4.702083333333333,1.51,-0.1825912895400942,0
4.704166666666667,1.5,-0.19335185933398985,0
4.70625,1.49,-0.20411297707282627,0
4.708333333333333,1.48,-0.21487464095727604,0
4.710416666666666,1.47,-0.2256368490453098,0
4.7125,1.46,-0.2363995992513348,0
4.714583333333334,1.45,-0.24716288934534533,0
4.716666666666667,1.44,-0.2579267169520868,0
4.71875,1.44,-0.2586910795502299,0
4.720833333333333,1.43,-0.2694559744715577,0
4.722916666666666,1.42,-0.2802213989001633,0
4.725,1.41,-0.290987349871662,0
4.727083333333334,1.41,-0.2917538242724154,0
4.729166666666667,1.4,-0.30252081883876764,0
4.73125,1.4,-0.30328833015629353,0
4.733333333333333,1.4,-0.30405635465905967,0
4.735416666666667,1.4,-0.3048248886288968,0
4.7375,1.41,-0.2955939281946851,0
4.739583333333333,1.41,-0.29636346933165486,0
4.741666666666666,1.42,-0.28713350786069836,0
4.74375,1.42,-0.2879040394476947,0
4.745833333333334,1.42,-0.28867505960284795,0
4.747916666666667,1.42,-0.289446563680038,0
4.75,1.41,-0.30021854687618477,0
4.752083333333333,1.41,-0.30099100423062486,0
4.754166666666666,1.41,-0.3017639306245,0
4.75625,1.41,-0.3025373207801613,0
4.758333333333334,1.41,-0.30331116926058566,0
4.760416666666667,1.41,-0.30408547046880585,0
4.7625,1.41,-0.3048602186473538,0
4.764583333333333,1.42,-0.2956354078777181,0
4.766666666666667,1.43,-0.28641103207981483,0
4.76875,1.44,-0.2771870850114718,0
4.770833333333333,1.45,-0.26796356026792556,0
4.772916666666666,1.45,-0.26874045128133334,0
4.775,1.45,-0.2695177513202993,0
4.777083333333334,1.45,-0.27029545348941497,0
4.779166666666667,1.46,-0.26107355072881233,0
4.78125,1.46,-0.2618520358137304,0
4.783333333333333,1.47,-0.2526309013540977,0
4.785416666666666,1.47,-0.25341013979412813,0
4.7875,1.47,-0.2541897434119281,0
4.789583333333334,1.47,-0.2549697043191214,0
4.791666666666667,1.48,-0.24575001446048667,0
4.79375,1.48,-0.2465306656136111,0
4.795833333333333,1.48,-0.24731164938855735,0
4.797916666666667,1.47,-0.25809295722754516,0
4.8,1.47,-0.258874580404646,0
4.802083333333333,1.47,-0.2596565100254923,0
4.804166666666666,1.47,-0.2604387370270016,0
4.80625,1.47,-0.26122125217711656,0
4.808333333333334,1.47,-0.2620040460745573,0
4.810416666666667,1.46,-0.27278710914858983,0
4.8125,1.45,-0.2835704316588068,0
4.814583333333333,1.43,-0.30435400369492904,0
4.816666666666666,1.41,-0.3251378151766159,0
4.81875,1.39,-0.34592185585329194,0
4.820833333333334,1.37,-0.3667061153039902,0
4.822916666666667,1.34,-0.39749058293720774,0
4.825,1.33,-0.4082752479907763,0
4.827083333333333,1.31,-0.4290600995317509,0
4.829166666666667,1.3,-0.43984512645630974,0
4.83125,1.28,-0.46063031748967165,0
4.833333333333333,1.27,-0.4714156611860262,0
4.835416666666666,1.26,-0.4822011459284825,0
4.8375,1.24,-0.5029867599290285,0
4.839583333333334,1.24,-0.5037724912285091,0
4.841666666666667,1.23,-0.5145583276966174,0
4.84375,1.23,-0.5153442570319012,0
4.845833333333333,1.23,-0.5161302667617851,0
4.847916666666666,1.22,-0.5269163442426065,0
4.85,1.22,-0.5277024766596691,0
4.852083333333334,1.21,-0.5384886510273105,0
4.854166666666667,1.21,-0.539274854188985,0
4.85625,1.2,-0.5500610728173616,0
4.858333333333333,1.19,-0.5608472934144366,0
4.860416666666667,1.19,-0.5616335023116635,0
4.8625,1.19,-0.5624196856700954,0
4.864583333333333,1.19,-0.563205829480544,0
4.866666666666666,1.2,-0.5539919195637534,0
4.86875,1.2,-0.5547779415705895,0
4.870833333333334,1.2,-0.5555638809822443,0
4.872916666666667,1.2,-0.5563497231104558,0
4.875,1.2,-0.5571354530977428,0
4.877083333333333,1.2,-0.5579210559176546,0
4.879166666666666,1.19,-0.5687065163750369,0
4.88125,1.19,-0.5694918191063125,0
4.883333333333334,1.19,-0.5702769485797777,0
4.885416666666667,1.19,-0.5710618890959136,0
4.8875,1.19,-0.5718466247877121,0
4.889583333333333,1.18,-0.5826311396210173,0
4.891666666666667,1.16,-0.6034154173948818,0
4.89375,1.14,-0.6241994417419383,0
4.895833333333333,1.12,-0.6449831961287851,0
4.897916666666666,1.1,-0.6657666638563897,0
4.9,1.14,-0.626549828060503,0
4.902083333333334,1.21,-0.557332671712091,0
4.904166666666667,1.32,-0.44811517761778297,0
4.90625,1.45,-0.3188973284203308,0
4.908333333333333,1.6,-0.1696791065990873,0
4.910416666666666,1.78,0.009539505529502224,0
4.9125,1.98,0.2087585258113962,0
4.914583333333334,2.19,0.417977972254433,0
4.916666666666667,2.38,0.6071978630277992,0
4.91875,2.53,0.7564182164614781,0
4.920833333333333,2.62,0.8456390510456855,0
4.922916666666667,2.64,0.8648603854302865,0
4.925,2.57,0.794082238424207,0
4.927083333333333,2.43,0.6533046289948208,0
4.929166666666666,2.27,0.4925275762673287,0
4.93125,2.08,0.3017510995241227,0
4.933333333333334,1.88,0.10097521820413019,0
4.935416666666667,1.7,-0.07980004809784824,0
4.9375,1.54,-0.24057467963182222,0
4.939583333333333,1.42,-0.3613486564933047,0
4.941666666666666,1.32,-0.4621219586240207,0
4.94375,1.25,-0.5328945658126317,0
4.945833333333334,1.21,-0.5736664576954714,0
4.947916666666667,1.18,-0.6044376137572975,0
4.95,1.17,-0.6152080133320573,0
4.952083333333333,1.16,-0.6259776356036688,0
4.954166666666667,1.15,-0.6367464596068154,0
4.95625,1.16,-0.6275144642277543,0
4.958333333333333,1.16,-0.6282816282051398,0
4.960416666666666,1.18,-0.6090479301308609,0
4.9625,1.19,-0.5998133484508915,0
4.964583333333334,1.2,-0.5905778614661559,0
4.966666666666667,1.21,-0.5813414473334061,0
4.96875,1.22,-0.5721040840661152,0
4.970833333333333,1.23,-0.5628657495353843,0
4.972916666666666,1.24,-0.5536264214708617,0
4.975,1.24,-0.5543860774616773,0
4.977083333333334,1.25,-0.5451446949573904,0
4.979166666666667,1.25,-0.5459022512689508,0
4.98125,1.26,-0.5366587235696736,0
4.983333333333333,1.27,-0.5274140888962273,0
4.985416666666667,1.29,-0.5081683241496368,0
4.9875,1.3,-0.49892140609629737,0
4.989583333333333,1.31,-0.48967331136900577,0
4.991666666666666,1.33,-0.47042401646800064,0
4.99375,1.34,-0.4611734977620197,0
4.995833333333334,1.35,-0.4519217314893667,0
4.997916666666667,1.37,-0.43266869375899364,0
5.0,1.37,-0.43341436055159566,0
5.002083333333333,1.39,-0.4141587077207181,0
5.004166666666666,1.4,-0.40490171099387606,0
5.00625,1.42,-0.3856433459736876,0
5.008333333333334,1.43,-0.3763835881390209,0
5.010416666666667,1.44,-0.367122412846152,0
5.0125,1.46,-0.34785979532993616,0
5.014583333333333,1.47,-0.33859571070499045,0
5.016666666666667,1.48,-0.3293301339668896,0
5.01875,1.5,-0.3100630399933737,0
5.020833333333333,1.52,-0.2907944035455701,0
5.022916666666666,1.53,-0.28152419926922645,0
5.025,1.55,-0.2622524016959542,0
5.027083333333334,1.57,-0.24297898524448425,0
5.029166666666667,1.58,-0.23370392422193748,0
5.03125,1.6,-0.21442719282510248,0
5.033333333333333,1.63,-0.1851487651417289,0
5.035416666666666,1.65,-0.16586861515183043,0
5.0375,1.68,-0.1365867167290003,0
5.039583333333334,1.7,-0.11730304364173755,0
5.041666666666667,1.72,-0.09801756955478347,0
5.04375,1.74,-0.07873026803047234,0
5.045833333333333,1.76,-0.05944111253008899,0
5.047916666666667,1.79,-0.030150076415240812,0
5.05,1.81,-0.010857132949238513,0
5.052083333333333,1.84,0.01843774470151116,0
5.054166666666666,1.86,0.03773458346610259,0
5.05625,1.88,0.057033410367715254,0
5.058333333333334,1.9,0.07633425252218984,0
5.060416666666667,1.91,0.08563713713659316,0
5.0625,1.93,0.10494209150777556,0
5.064583333333333,1.94,0.11424914302091449,0
5.066666666666666,1.96,0.13355831914804783,0
5.06875,1.96,0.13286964744659946,0
5.070833333333334,1.97,0.14218315555789174,0
5.072916666666667,1.98,0.15149887120565075,0
5.075,1.98,0.15081682219449966,0
5.077083333333333,1.98,0.15013703640844644,0
5.079166666666667,1.98,0.14945954180935872,0
5.08125,1.98,0.14878436643542936,0
5.083333333333333,1.97,0.1381115383996332,0
5.085416666666666,1.98,0.14744108588817373,0
5.0875,1.97,0.13677303715892075,0
5.089583333333334,1.97,0.13610742053984043,0
5.091666666666667,1.96,0.12544426442741508,0
5.09375,1.95,0.11478359728505372,0
5.095833333333333,1.94,0.10412544764149362,0
5.097916666666666,1.93,0.09346984408919506,0
5.1,1.91,0.07281681528272599,0
5.102083333333334,1.9,0.06216638993713808,0
5.104166666666667,1.89,0.05151859682633575,0
5.10625,1.88,0.04087346478143494,0
5.108333333333333,1.78,-0.05976897731088482,0
5.110416666666667,1.77,-0.07040870051003878,0
5.1125,1.75,-0.09104567582320328,0
5.114583333333333,1.74,-0.10167987420698693,0
5.116666666666666,1.74,-0.10231126656911238,0
5.11875,1.74,-0.10293982377010613,0
5.120833333333334,1.73,-0.11356551662499537,0
5.122916666666667,1.73,-0.114188315905013,0
5.125,1.73,-0.11480819233930872,0
5.127083333333333,1.73,-0.11542511661666954,0
5.129166666666666,1.72,-0.12603905938724652,0
5.13125,1.71,-0.13664999126428856,0
5.133333333333334,1.7,-0.14725788282588456,0
5.135416666666667,1.69,-0.15786270461671054,0
5.1375,1.69,-0.15846442714978795,0
5.139583333333333,1.69,-0.15906302090824667,0
5.141666666666667,1.68,-0.16965845634709495,0
5.14375,1.68,-0.17025070389499639,0
5.145833333333333,1.68,-0.17083973395605279,0
5.147916666666666,1.68,-0.17142551691159333,0
5.15,1.67,-0.1820080231219714,0
5.152083333333334,1.67,-0.18258722292836674,0
5.154166666666667,1.66,-0.19316308665459367,0
5.15625,1.65,-0.2037355846089168,0
5.158333333333333,1.65,-0.20430468708587327,0
5.160416666666666,1.64,-0.21487036436810092,0
5.1625,1.63,-0.22543258672817007,0
5.164583333333334,1.62,-0.23599132443042287,0
5.166666666666667,1.61,-0.24654654773281887,0
5.16875,1.62,-0.23709822688878568,0
5.170833333333333,1.62,-0.23764633214907543,0
5.172916666666667,1.63,-0.22819083376362645,0
5.175,1.64,-0.21873170198342906,0
5.177083333333333,1.66,-0.19926890706239883,0
5.179166666666666,1.67,-0.1898024192592529,0
5.18125,1.68,-0.1803322088393932,0
5.183333333333334,1.69,-0.17085824607679315,0
5.185416666666667,1.69,-0.17138050125588947,0
5.1875,1.69,-0.1718989446734799,0
5.189583333333333,1.69,-0.1724135466406249,0
5.191666666666666,1.69,-0.17292427748455286,0
5.19375,1.7,-0.1634311075505704,0
5.195833333333334,1.7,-0.163934007203977,0
5.197916666666667,1.71,-0.15443294683198386,0
5.2,1.72,-0.14492789684563598,0
5.202083333333333,1.73,-0.13541882768173824,0
5.204166666666667,1.74,-0.12590570980478433,0
5.20625,1.74,-0.12638851370889356,0
5.208333333333333,1.76,-0.10686720991974705,0
5.210416666666666,1.77,-0.09734176899652935,0
5.2125,1.78,-0.08781216153387353,0
5.214583333333334,1.78,-0.08827835816380747,0
5.216666666666667,1.78,-0.08874032955770506,0
5.21875,1.79,-0.07919804642823905,0
5.220833333333333,1.8,-0.06965147953133904,0
5.222916666666666,1.81,-0.06010059966815123,0
5.225,1.82,-0.0505453776870001,0
5.227083333333334,1.82,-0.050985784485354485,0
5.229166666666667,1.81,-0.061421791011794624,0
5.23125,1.82,-0.05185336826798201,0
5.233333333333333,1.81,-0.06228048731063163,0
5.235416666666667,1.8,-0.07270311925348513,0
5.2375,1.79,-0.08312123526928777,0
5.239583333333333,1.78,-0.0935348065917656,0
5.241666666666666,1.76,-0.11394380451760441,0
5.24375,1.75,-0.12434820040843236,0
5.245833333333334,1.73,-0.14474796569280318,0
5.247916666666667,1.72,-0.15514307186817883,0
5.25,1.7,-0.1755334905029178,0
5.252083333333333,1.67,-0.20591919323825963,0
5.254166666666666,1.65,-0.22630015179031437,0
5.25625,1.63,-0.24667633795204966,0
5.258333333333334,1.62,-0.25704772359528105,0
5.260416666666667,1.61,-0.2674142806726626,0
5.2625,1.61,-0.2677759812196769,0
5.264583333333333,1.6,-0.27813279735662655,0
5.266666666666667,1.59,-0.28848470129062603,0
5.26875,1.58,-0.29883166531759237,0
5.270833333333333,1.57,-0.30917366182423794,0
5.272916666666666,1.56,-0.3195106632900626,0
5.275,1.56,-0.3198426422893444,0
5.277083333333334,1.56,-0.3201695714931311,0
5.279166666666667,1.56,-0.3204914236712302,0
5.28125,1.57,-0.3108081716941991,0
5.283333333333333,1.58,-0.30111978853533566,0
5.285416666666666,1.58,-0.30142624727266687,0
5.2875,1.59,-0.29172752109093686,0
5.289583333333334,1.6,-0.2820235832835932,0
5.291666666666667,1.6,-0.28231440725477414,0
5.29375,1.6,-0.2825999665212905,0
5.295833333333333,1.6,-0.2828802347146089,0
5.297916666666667,1.61,-0.2731551855828325,0
5.3,1.61,-0.27342479299268,0
5.302083333333333,1.6,-0.28368903093146286,0
5.304166666666666,1.6,-0.28394787350906114,0
5.30625,1.6,-0.2842012949598964,0
5.308333333333334,1.6,-0.2844492696449018,0
5.310416666666667,1.59,-0.2946917720534906,0
5.3125,1.6,-0.2849287768055219,0
5.314583333333333,1.59,-0.2951602586532647,0
5.316666666666666,1.53,-0.3553861924833552,0
5.31875,1.52,-0.36560655331875597,0
5.320833333333334,1.51,-0.3758213163207076,0
5.322916666666667,1.51,-0.3760304567906788,0
5.325,1.52,-0.366233950172314,0
5.327083333333333,1.54,-0.3464317720533754,0
5.329166666666667,1.59,-0.29662389816768187,0
5.33125,1.67,-0.21681030439704424,0
5.333333333333333,1.78,-0.10699096677319664,0
5.335416666666666,1.93,0.04283413852027729,0
5.3375,2.1,0.21266503514602197,0
5.339583333333334,2.3,0.4125017466109919,0
5.341666666666667,2.51,0.6223442962645388,0
5.34375,2.72,0.8321927072965045,0
5.345833333333333,2.89,1.0020470027353159,0
5.347916666666666,3.02,1.1319072054460926,0
5.35,3.08,1.1917733381287503,0
5.352083333333334,3.06,1.1716454233161124,0
5.354166666666667,2.96,1.0715234833720317,0
5.35625,2.82,0.9314075404895132,0
5.358333333333333,2.65,0.7612976166888504,0
5.360416666666667,2.48,0.5911937338157596,0
5.3625,2.3,0.41109591353952357,0
5.364583333333333,2.13,0.2410041773511417,0
5.366666666666666,1.98,0.09091854656148492,0
5.36875,1.87,-0.019160957700541416,0
5.370833333333334,1.77,-0.119234314489825,0
5.372916666666667,1.71,-0.17930150304687092,0
5.375,1.67,-0.21936250279961805,0
5.377083333333333,1.64,-0.2494172933652475,0
5.379166666666666,1.63,-0.2594658545519837,0
5.38125,1.62,-0.2695081663608907,0
5.383333333333334,1.63,-0.2595442089876594,0
5.385416666666667,1.63,-0.25957396282438694,0
5.3875,1.64,-0.2495974084613485,0
5.389583333333333,1.64,-0.24961452668876102,0
5.391666666666667,1.64,-0.24962529849853834,0
5.39375,1.65,-0.23962970508603942,0
5.395833333333333,1.66,-0.22962772785180652,0
5.397916666666666,1.67,-0.21961934840329725,0
5.4,1.68,-0.2096045485566086,0
5.402083333333334,1.69,-0.19958331033818938,0
5.404166666666667,1.71,-0.17955561598654501,0
5.40625,1.72,-0.16952144795393392,0
5.408333333333333,1.73,-0.15948078890805378,0
5.410416666666666,1.75,-0.13943362173371898,0
5.4125,1.76,-0.1293799295345305,0
5.414583333333334,1.77,-0.1193196956345329,0
5.416666666666667,1.79,-0.09925290357986377,0
5.41875,1.8,-0.08917953714039362,0
5.420833333333333,1.82,-0.06909958031135541,0
5.422916666666667,1.83,-0.05901301731496353,0
5.425,1.85,-0.03891983260202507,0
5.427083333333333,1.87,-0.018820010853536812,0
5.429166666666666,1.89,0.0012864630177262908,0
5.43125,1.9,0.011399603865634017,0
5.433333333333334,1.92,0.03151942630913114,0
5.435416666666667,1.93,0.0416459447306826,0
5.4375,1.94,0.05177917327472761,0
5.439583333333333,1.95,0.06191912584614391,0
5.441666666666666,1.96,0.07206581610872737,0
5.44375,1.98,0.0922192574836804,0
5.445833333333334,2.0,0.11237946314811051,0
5.447916666666667,2.01,0.12254644603354363,0
5.45,2.03,0.14272021882444752,0
5.452083333333333,2.05,0.1629007939567673,0
5.454166666666667,2.07,0.18308818361647153,0
5.45625,2.09,0.2032823997381121,0
5.458333333333333,2.1,0.21348345400339724,0
5.460416666666666,2.12,0.23369135783977654,0
5.4625,2.14,0.2539061224190388,0
5.464583333333334,2.17,0.2841277586559221,0
5.466666666666667,2.19,0.3043562772067381,0
5.46875,2.2,0.3145916884680071,0
5.470833333333333,2.23,0.3448340025751086,0
5.472916666666666,2.25,0.36508322940094606,0
5.475,2.27,0.3853393785546211,0
5.477083333333334,2.3,0.4156024593801234,0
5.479166666666667,2.32,0.43587248095503733,0
5.48125,2.34,0.456149452089256,0
5.483333333333333,2.36,0.4764333813237154,0
5.485416666666667,2.38,0.4967242769291384,0
5.4875,2.39,0.5070221469047951,0
5.489583333333333,2.41,0.5273269989772786,0
5.491666666666666,2.42,0.5376388405992933,0
5.49375,2.44,0.5579576789484576,0
5.495833333333334,2.45,0.5682835209261219,0
5.497916666666667,2.46,0.5786163731562026,0
5.5,2.48,0.5989562419840309,0
5.502083333333333,2.48,0.5993031334752134,0
5.504166666666666,2.49,0.609657053414513,0
5.50625,2.5,0.6200180073047405,0
5.508333333333334,2.5,0.6203860003656659,0
5.510416666666667,2.5,0.620761037532944,0
5.5125,2.5,0.6211431234570548,0
5.514583333333333,2.5,0.6215322625022579,0
5.516666666666667,2.5,0.6219284587455634,0
5.51875,2.49,0.612331715975721,0
5.520833333333333,2.48,0.6027420376922217,0
5.522916666666666,2.47,0.5931594271043183,0
5.525,2.43,0.5535838871300556,0
5.527083333333334,2.42,0.5440154203953257,0
5.529166666666667,2.4,0.5244540292329338,0
5.53125,2.39,0.5148997156816839,0
5.533333333333333,2.38,0.5053524814854772,0
5.535416666666666,2.37,0.4958123280924326,0
5.5375,2.36,0.4862792566540178,0
5.539583333333334,2.34,0.466753268024201,0
5.541666666666667,2.33,0.4572343627586196,0
5.54375,2.32,0.44772254111376364,0
5.545833333333333,2.32,0.4482178030461776,0
5.547916666666667,2.31,0.4387201482116765,0
5.55,2.3,0.4292295759645814,0
5.552083333333333,2.29,0.41974608535697555,0
5.554166666666666,2.28,0.41026967513797047,0
5.55625,2.27,0.40080034375299634,0
5.558333333333334,2.26,0.3913380893431021,0
5.560416666666667,2.25,0.3818829097442816,0
5.5625,2.25,0.3824348024868093,0
5.564583333333333,2.24,0.37299376479459884,0
5.566666666666666,2.24,0.37355979358457625,0
5.56875,2.23,0.36413288546607325,0
5.570833333333334,2.22,0.35471303674023646,0
5.572916666666667,2.21,0.34530024339945287,0
5.575,2.2,0.33589450112679725,0
5.577083333333333,2.19,0.32649580529549005,0
5.579166666666667,2.19,0.32710415096838397,0
5.58125,2.18,0.3177195328974599,0
5.583333333333333,2.18,0.3183419455233444,0
5.585416666666666,2.17,0.30897138297484333,0
5.5875,2.17,0.3096078390684932,0
5.589583333333334,2.17,0.31025130730813166,0
5.591666666666667,2.17,0.31090178088448633,0
5.59375,2.17,0.311559252674781,0
5.595833333333333,2.17,0.31222371524236225,0
5.597916666666666,2.17,0.3128951608363413,0
5.6,2.17,0.313573581391256,0
5.602083333333334,2.18,0.32425896852675173,0
5.604166666666667,2.18,0.324951313547279,0
5.60625,2.19,0.3356506074418115,0
5.608333333333333,2.2,0.3463568408835823,0
5.610416666666667,2.2,0.3470700042298366,0
5.6125,2.21,0.35779008752160535,0
5.614583333333333,2.21,0.3585170804834951,0
5.616666666666666,2.21,0.3592509725234966,0
5.61875,2.21,0.35999175273281403,0
5.620833333333334,2.22,0.3707394098857111,0
5.622916666666667,2.22,0.37149393243937495,0
5.625,2.23,0.38225530853380035,0
5.627083333333333,2.23,0.38302352599169254,0
5.629166666666666,2.24,0.39379857231838733,0
5.63125,2.24,0.39458043470179094,0
5.633333333333334,2.25,0.40536910001234094,0
5.635416666666667,2.25,0.40616455480298364,0
5.6375,2.26,0.4169667853091692,0
5.639583333333333,2.26,0.4177757774488665,0
5.641666666666667,2.26,0.41859151682259876,0
5.64375,2.27,0.429413988713494,0
5.645833333333333,2.27,0.4302431780873558,0
5.647916666666666,2.27,0.431079069592755,0
5.65,2.28,0.4419216475611392,0
5.652083333333334,2.28,0.4427708960069616,0
5.654166666666667,2.28,0.4436267986278264,0
5.65625,2.28,0.44448933880465613,0
5.658333333333333,2.28,0.44535849960187457,0
5.660416666666666,2.28,0.44623426376761177,0
5.6625,2.28,0.447116613733925,0
5.664583333333334,2.27,0.4380055316170409,0
5.666666666666667,2.26,0.42890099921761426,0
5.66875,2.26,0.4298029980210101,0
5.670833333333333,2.24,0.41071150919759947,0
5.672916666666667,2.22,0.3916265136030759,0
5.675,2.2,0.37254799177879283,0
5.677083333333333,2.18,0.353475923952116,0
5.679166666666666,2.16,0.33441029003679845,0
5.68125,2.13,0.3053510696333703,0
5.683333333333334,2.11,0.28629824202955184,0
5.685416666666667,2.1,0.2772517862006814,0
5.6875,2.08,0.2582116808101647,0
5.689583333333333,2.07,0.24917790420994002,0
5.691666666666666,2.06,0.24015043444096834,0
5.69375,2.05,0.23112924923373296,0
5.695833333333334,2.04,0.22211432600876563,0
5.697916666666667,2.03,0.21310564187718523,0
5.7,2.03,0.21410317364126236,0
5.702083333333333,2.02,0.20510689779499774,0
5.704166666666667,2.02,0.20611679052471849,0
5.70625,2.01,0.1971328277096943,0
5.708333333333333,2.01,0.19815498492277117,0
5.710416666666666,2.0,0.18918323743102544,0
5.7125,2.0,0.19021756019643749,0
5.714583333333334,2.0,0.19125792787658147,0
5.716666666666667,1.99,0.18230431482533327,0
5.71875,1.99,0.18335669509359886,0
5.720833333333333,1.99,0.18441504243006007,0
5.722916666666666,1.99,0.18547933028193864,0
5.725,1.99,0.18654953179577893,0
5.727083333333334,1.98,0.17762561981824881,0
5.729166666666667,1.99,0.1887075668969574,0
5.73125,1.99,0.18979534528129055,0
5.733333333333333,1.97,0.1708889269232658,0
5.735416666666667,1.96,0.1619882834784065,0
5.7375,1.96,0.16309338630663184,0
5.739583333333333,1.94,0.14420420647316728,0
5.741666666666666,1.92,0.1253207147494716,0
5.74375,1.9,0.10644288161418347,0
5.745833333333334,1.89,0.09757067725408314,0
5.747916666666667,1.87,0.07870407156507542,0
5.75,1.86,0.06984303415318627,0
5.752083333333333,1.86,0.07098753433558203,0
5.754166666666666,1.86,0.07213754114160276,0
5.75625,1.88,0.09329302331381428,0
5.758333333333334,1.93,0.14445394930907962,0
5.760416666666667,2.01,0.2256202872996465,0
5.7625,2.13,0.34679200517425424,0
5.764583333333333,2.28,0.49796907053925726,0
5.766666666666667,2.46,0.679151450719766,0
5.76875,2.65,0.8703391127608051,0
5.770833333333333,2.85,1.0715320234284906,0
5.772916666666666,3.04,1.2627301492112215,0
5.775,3.19,1.4139334563208938,0
5.777083333333334,3.26,1.4851419106941273,0
5.779166666666667,3.26,1.4863554779935089,0
5.78125,3.24,1.4675741236088555,0
5.783333333333333,3.14,1.368797812658494,0
5.785416666666666,2.98,1.210026509990559,0
5.7875,2.81,1.0412601801843073,0
5.789583333333334,2.61,0.8424987875514482,0
5.791666666666667,2.41,0.6437422961374938,0
5.79375,2.24,0.4749906697231197,0
5.795833333333333,2.1,0.3362438718255501,0
5.797916666666667,1.97,0.2075018656999551,0
5.8,1.89,0.1287646143408654,0
5.802083333333333,1.82,0.06003208048360531,0
5.804166666666666,1.78,0.02130422660573883,0
5.80625,1.76,0.0025810149285356854,0
5.808333333333334,1.75,-0.006137592581549334,0
5.810416666666667,1.74,-0.014851634211379472,0
5.8125,1.74,-0.013561148499625086,0
5.814583333333333,1.74,-0.012266174235237015,0
5.816666666666666,1.75,-0.0009667504559034423,0
5.81875,1.75,0.00033708355350992036,0
5.820833333333334,1.76,0.011645288262536302,0
5.822916666666667,1.77,0.022957823896699425,0
5.825,1.77,0.024274650439117584,0
5.827083333333333,1.78,0.035595727632124485,0
5.829166666666667,1.77,0.02692101497890531,0
5.83125,1.78,0.03825047174514784,0
5.833333333333333,1.78,0.0395840569607101,0
5.835416666666666,1.79,0.05092172942130002,0
5.8375,1.79,0.052263447690171216,0
5.839583333333334,1.79,0.053609170099835235,0
5.841666666666667,1.79,0.054958854753786035,0
5.84375,1.8,0.06631245952823994,0
5.845833333333333,1.8,0.06766994207389088,0
5.847916666666666,1.81,0.07903125981767634,0
5.85,1.82,0.09039636996456157,0
5.852083333333334,1.83,0.10176522949933514,0
5.854166666666667,1.83,0.10313779518841948,0
5.85625,1.83,0.10451402358169537,0
5.858333333333333,1.84,0.11589387101434107,0
5.860416666666667,1.85,0.127277293608684,0
5.8625,1.85,0.1286642472760655,0
5.864583333333333,1.86,0.1400546877187211,0
5.866666666666666,1.87,0.1514485704316716,0
5.86875,1.88,0.16284585070462787,0
5.870833333333334,1.89,0.1742464836239131,0
5.872916666666667,1.9,0.18565042407439214,0
5.875,1.91,0.19705762674141858,0
5.877083333333333,1.92,0.20846804611279174,0
5.879166666666666,1.93,0.219881636480728,0
5.88125,1.94,0.23129835194384396,0
5.883333333333334,1.95,0.24271814640915174,0
5.885416666666667,1.96,0.2541409735940682,0
5.8875,1.97,0.2655667870284346,0
5.889583333333333,1.99,0.2869955400565499,0
5.891666666666667,1.99,0.28842718583921445,0
5.89375,2.01,0.3098616773557893,0
5.895833333333333,2.02,0.32129896740626546,0
5.897916666666666,2.04,0.34273900861334283,0
5.9,2.05,0.35418175342452396,0
5.902083333333334,2.07,0.3756271541142163,0
5.904166666666667,2.08,0.3870751627858492,0
5.90625,2.1,0.40852573137399883,0
5.908333333333333,2.12,0.42997881164653157,0
5.910416666666666,2.14,0.4514343552067479,0
5.9125,2.15,0.46289231349554505,0
5.914583333333334,2.16,0.47435263779358694,0
5.916666666666667,2.17,0.48581527922348544,0
5.91875,2.18,0.49728018875199514,0
5.920833333333333,2.19,0.5087473171922136,0
5.922916666666667,2.2,0.5202166152057979,0
5.925,2.2,0.5216880333051848,0
5.927083333333333,2.21,0.5331615218558271,0
5.929166666666666,2.22,0.5446370310784372,0
5.93125,2.22,0.5461145110512383,0
5.933333333333334,2.21,0.5375939117122301,0
5.935416666666667,2.21,0.5390751828614609,0
5.9375,2.21,0.5405582741633086,0
5.939583333333333,2.2,0.5320431351487724,0
5.941666666666666,2.15,0.48352971521777066,0
5.94375,2.13,0.46501796364145553,0
5.945833333333334,2.11,0.4465078295645295,0
5.947916666666667,2.09,0.4279992620075721,0
5.95,2.07,0.40949220986937807,0
5.952083333333333,2.04,0.3809866219292998,0
5.954166666666667,2.01,0.35248244684960023,0
5.95625,1.99,0.33397963317781587,0
5.958333333333333,1.96,0.3054781293491243,0
5.960416666666666,1.94,0.28697788368871974,0
5.9625,1.92,0.26847884441419745,0
5.964583333333334,1.9,0.24998095963794587,0
5.966666666666667,1.88,0.23148417736954424,0
5.96875,1.86,0.21298844551816976,0
5.970833333333333,1.84,0.19449371189500936,0
5.972916666666666,1.82,0.17599992421567962,0
5.975,1.8,0.15750703010265232,0
5.977083333333334,1.78,0.13901497708768656,0
5.979166666666667,1.77,0.13052371261426993,0
5.98125,1.75,0.1120331840400618,0
5.983333333333333,1.74,0.10354333863934506,0
5.985416666666667,1.73,0.09505412360548388,0
5.9875,1.72,0.08656548605338593,0
5.989583333333333,1.7,0.06807737302196981,0
5.991666666666666,1.69,0.05958973147664115,0
