Tiempo_s,ECG_original_V,ECG_preprocesado_V,Saturacion
0.0,1.52,0.011840797607780784,0
0.0020833333333333333,1.52,0.011443077283080957,0
0.004166666666666667,1.52,0.011044645407752893,0
0.00625,1.52,0.010645506727551136,0
0.008333333333333333,1.52,0.010245666007303214,0
0.010416666666666666,1.53,0.019845128030753875,0
0.0125,1.54,0.029443897600408803,0
0.014583333333333334,1.55,0.03904197953737601,0
0.016666666666666666,1.55,0.03863937868120833,0
0.01875,1.56,0.04823609988974363,0
0.020833333333333332,1.57,0.057832148038946915,0
0.022916666666666665,1.57,0.057427528022752514,0
0.025,1.58,0.06702224475290194,0
0.027083333333333334,1.59,0.07661630315878404,0
0.029166666666666667,1.6,0.08620970818727303,0
0.03125,1.6,0.08580246480256597,0
0.03333333333333333,1.61,0.09539457798602122,0
0.035416666666666666,1.61,0.09498605273599692,0
0.0375,1.6,0.08457689406768695,0
0.03958333333333333,1.59,0.07416710701295642,0
0.041666666666666664,1.58,0.06375669662017686,0
0.04375,1.57,0.053345667954060955,0
0.04583333333333333,1.56,0.04293402609549685,0
0.04791666666666667,1.55,0.032521776141383095,0
0.05,1.55,0.032108923204463284,0
0.052083333333333336,1.55,0.03169547241315846,0
0.05416666666666667,1.54,0.021281428911398843,0
0.05625,1.54,0.020866797858457235,0
0.058333333333333334,1.54,0.020451584428780263,0
0.06041666666666667,1.54,0.0200357938118199,0
0.0625,1.55,0.029619431211864444,0
0.06458333333333334,1.56,0.039202501847869255,0
0.06666666666666667,1.57,0.04878501095328676,0
0.06875,1.57,0.04836696377589809,0
0.07083333333333333,1.58,0.057948365577642866,0
0.07291666666666667,1.59,0.067529221634448,0
0.075,1.53,0.007109537236056826,0
0.07708333333333334,1.53,0.0066893176858591405,0
0.07916666666666666,1.54,0.016268568300718628,0
0.08125,1.53,0.005847294410801002,0
0.08333333333333333,1.54,0.015425501359402221,0
0.08541666666666667,1.54,0.015003194502774715,0
0.0875,1.54,0.014580379209954662,0
0.08958333333333333,1.54,0.01415706086258833,0
0.09166666666666666,1.54,0.013733244854758991,0
0.09375,1.54,0.013308936592813039,0
0.09583333333333334,1.54,0.012884141495186387,0
0.09791666666666667,1.54,0.01245886499223035,0
0.1,1.55,0.022033112526037315,0
0.10208333333333333,1.56,0.0316068895502669,0
0.10416666666666667,1.57,0.041180201529971226,0
0.10625,1.57,0.04075305394142023,0
0.10833333333333334,1.58,0.05032545227192589,0
0.11041666666666666,1.59,0.05989740201966673,0
0.1125,1.6,0.0694689086935118,0
0.11458333333333333,1.62,0.08903997781284545,0
0.11666666666666667,1.62,0.08861061490739125,0
0.11875,1.62,0.0881808255170352,0
0.12083333333333333,1.62,0.08775061519164934,0
0.12291666666666666,1.6,0.06731998949091528,0
0.125,1.59,0.056888953984147346,0
0.12708333333333333,1.56,0.026457514250116547,0
0.12916666666666668,1.55,0.016025675876872734,0
0.13125,1.53,-0.004406555538430251,0
0.13333333333333333,1.52,-0.014839174389713789,0
0.13541666666666666,1.52,-0.015272175062150686,0
0.1375,1.52,-0.015705551932342843,0
0.13958333333333334,1.52,-0.016139299368498516,0
0.14166666666666666,1.52,-0.016573411730609652,0
0.14375,1.53,-0.007007883370629539,0
0.14583333333333334,1.54,0.0025572913673497146,0
0.14791666666666667,1.55,0.01212211814691676,0
0.15,1.55,0.011686602639163074,0
0.15208333333333332,1.56,0.021250750522503498,0
0.15416666666666667,1.57,0.030814567482498674,0
0.15625,1.57,0.030378059211678084,0
0.15833333333333333,1.58,0.03994123140936061,0
0.16041666666666668,1.59,0.04950408978147533,0
0.1625,1.6,0.059066640040383,0
0.16458333333333333,1.6,0.05862888790469769,0
0.16666666666666666,1.61,0.06819083909910885,0
0.16875,1.61,0.06775249935420247,0
0.17083333333333334,1.6,0.05731387440628275,0
0.17291666666666666,1.59,0.046874969997193094,0
0.175,1.58,0.0364357918741378,0
0.17708333333333334,1.57,0.025996345789501475,0
0.17916666666666667,1.56,0.015556637500670528,0
0.18125,1.55,0.00511667276985554,0
0.18333333333333332,1.55,0.004676457363910706,0
0.18541666666666667,1.55,0.00423599705415496,0
0.1875,1.54,-0.006204702383806462,0
0.18958333333333333,1.54,-0.006645635170262145,0
0.19166666666666668,1.54,-0.0070867955215732185,0
0.19375,1.54,-0.007528177650352831,0
0.19583333333333333,1.55,0.0020302242343545676,0
0.19791666666666666,1.56,0.011588415926895123,0
0.2,1.57,0.021146403224825458,0
0.20208333333333334,1.57,0.020704191928735544,0
0.20416666666666666,1.58,0.03026178784206855,0
0.20625,1.59,0.03981919677094216,0
0.20833333333333334,1.52,-0.030623575476031083,0
0.21041666666666667,1.52,-0.031066523087921606,0
0.2125,1.52,-0.03150964025166151,0
0.21458333333333332,1.52,-0.03195292115222319,0
0.21666666666666667,1.53,-0.022396359972797868,0
0.21875,1.53,-0.022839950894975175,0
0.22083333333333333,1.53,-0.023283688098921874,0
0.22291666666666668,1.52,-0.033727565763561,0
0.225,1.53,-0.02417157806675122,0
0.22708333333333333,1.53,-0.024615719185465276,0
0.22916666666666666,1.53,-0.025059983295969104,0
0.23125,1.54,-0.015504364574001096,0
0.23333333333333334,1.54,-0.015948857194949553,0
0.23541666666666666,1.54,-0.016393455334032622,0
0.2375,1.54,-0.016838153166476542,0
0.23958333333333334,1.54,-0.017282944867693974,0
0.24166666666666667,1.54,-0.017727824613462943,0
0.24375,1.55,-0.00817278658010543,0
0.24583333333333332,1.56,0.001382175055335673,0
0.24791666666666667,1.55,-0.0090629338850832,0
0.25,1.55,-0.009508107580382175,0
0.2520833333333333,1.55,-0.00995334021083694,0
0.25416666666666665,1.55,-0.010398625958157659,0
0.25625,1.55,-0.010843959005666454,0
0.25833333333333336,1.55,-0.01128933353847484,0
0.2604166666666667,1.55,-0.011734743743662013,0
0.2625,1.55,-0.012180183810450634,0
0.26458333333333334,1.55,-0.012625647930384377,0
0.26666666666666666,1.55,-0.013071130297505167,0
0.26875,1.55,-0.01351662510853057,0
0.2708333333333333,1.55,-0.013962126563031318,0
0.27291666666666664,1.56,-0.004407628863607491,0
0.275,1.56,-0.004853126216066133,0
0.27708333333333335,1.56,-0.005298612829596205,0
0.2791666666666667,1.56,-0.005744082916946915,0
0.28125,1.55,-0.016189530694602106,0
0.2833333333333333,1.55,-0.016634950382956544,0
0.28541666666666665,1.55,-0.017080336206493844,0
0.2875,1.55,-0.017525682393962065,0
0.28958333333333336,1.55,-0.017970983178549282,0
0.2916666666666667,1.55,-0.0184162327980587,0
0.29375,1.54,-0.028861425495084227,0
0.29583333333333334,1.54,-0.02930655551718598,0
0.29791666666666666,1.54,-0.02975161711706542,0
0.3,1.54,-0.030196604552740897,0
0.3020833333333333,1.55,-0.020641512087722788,0
0.30416666666666664,1.56,-0.011086333991187771,0
0.30625,1.57,-0.0015310645381524171,0
0.30833333333333335,1.57,-0.001975698009646438,0
0.3104166666666667,1.57,-0.0024202286928866404,0
0.3125,1.57,-0.002864650881451155,0
0.3145833333333333,1.58,0.006691041124546399,0
0.31666666666666665,1.59,0.016246853018285438,0
0.31875,1.59,0.01580279048606526,0
0.32083333333333336,1.59,0.015358859207132215,0
0.3229166666666667,1.6,0.02491506485350614,0
0.325,1.6,0.024471413089809133,0
0.32708333333333334,1.61,0.03402790957309376,0
0.32916666666666666,1.61,0.03358455995267258,0
0.33125,1.61,0.0331413698699453,0
0.3333333333333333,1.61,0.03269834495822921,0
0.33541666666666664,1.62,0.04225549084258799,0
0.3375,1.63,0.051812813139660574,0
0.33958333333333335,1.63,0.05137031745749107,0
0.3416666666666667,1.64,0.060928009395358744,0
0.34375,1.65,0.07048589454360887,0
0.3458333333333333,1.65,0.07004397848348205,0
0.34791666666666665,1.66,0.07960226678694451,0
0.35,1.67,0.08916076501651943,0
0.35208333333333336,1.67,0.08871947872511829,0
0.3541666666666667,1.68,0.09827841345587296,0
0.35625,1.69,0.10783757474196948,0
0.35833333333333334,1.7,0.11739696810647961,0
0.36041666666666666,1.7,0.11695659906219417,0
0.3625,1.7,0.11651647311145416,0
0.3645833333333333,1.7,0.11607659574598561,0
0.36666666666666664,1.71,0.12563697244673255,0
0.36875,1.7,0.11519760868369078,0
0.37083333333333335,1.69,0.10475850991574426,0
0.3729166666666667,1.69,0.10431968159049818,0
0.375,1.67,0.08388112914411375,0
0.3770833333333333,1.66,0.07344285800114433,0
0.37916666666666665,1.65,0.06300487357437225,0
0.38125,1.63,0.04256718126464397,0
0.38333333333333336,1.61,0.02212978646070723,0
0.3854166666666667,1.59,0.0016926945390478981,0
0.3875,1.57,-0.018744089136272693,0
0.38958333333333334,1.56,-0.02918055921378178,0
0.39166666666666666,1.55,-0.039616710354755294,0
0.39375,1.54,-0.05005253723337935,0
0.3958333333333333,1.53,-0.0604880345369134,0
0.39791666666666664,1.52,-0.0709231969658514,0
0.4,1.52,-0.07135801923408196,0
0.40208333333333335,1.51,-0.08179249606904831,0
0.4041666666666667,1.51,-0.08222662221190935,0
0.40625,1.51,-0.08266039241770093,0
0.4083333333333333,1.5,-0.09309380145549528,0
0.41041666666666665,1.5,-0.09352684410856113,0
0.4125,1.5,-0.09395951517452211,0
0.41458333333333336,1.5,-0.09439180946551523,0
0.4166666666666667,1.54,-0.05482372180834977,0
0.41875,1.55,-0.04525524704466663,0
0.42083333333333334,1.55,-0.04568638003109436,0
0.42291666666666666,1.55,-0.04611711563940739,0
0.425,1.55,-0.04654744875668268,0
0.4270833333333333,1.54,-0.05697737428545738,0
0.42916666666666664,1.55,-0.04740688714388569,0
0.43125,1.55,-0.04783598226589439,0
0.43333333333333335,1.55,-0.04826465460134009,0
0.4354166666666667,1.55,-0.04869289911616413,0
0.4375,1.55,-0.04912071079254732,0
0.4395833333333333,1.55,-0.049548084629066416,0
0.44166666666666665,1.55,-0.049975015640847845,0
0.44375,1.55,-0.050401498859721644,0
0.44583333333333336,1.54,-0.06082752933437599,0
0.4479166666666667,1.54,-0.061253102130511106,0
0.45,1.54,-0.061678212330992924,0
0.45208333333333334,1.54,-0.06210285503600582,0
0.45416666666666666,1.55,-0.05252702536320543,0
0.45625,1.55,-0.052950718447870415,0
0.4583333333333333,1.55,-0.053373929443054996,0
0.46041666666666664,1.55,-0.05379665351974107,0
0.4625,1.55,-0.05421888586698827,0
0.46458333333333335,1.55,-0.054640621692084584,0
0.4666666666666667,1.55,-0.05506185622069815,0
0.46875,1.55,-0.055482584697027396,0
0.4708333333333333,1.55,-0.05590280238395015,0
0.47291666666666665,1.55,-0.05632250456317289,0
0.475,1.54,-0.06674168653537892,0
0.47708333333333336,1.54,-0.06716034362037754,0
0.4791666666666667,1.55,-0.05757847115725241,0
0.48125,1.55,-0.05799606450451006,0
0.48333333333333334,1.55,-0.05841311904022672,0
0.48541666666666666,1.55,-0.05882963016219462,0
0.4875,1.56,-0.049245593288067865,0
0.4895833333333333,1.56,-0.04966100385551047,0
0.49166666666666664,1.56,-0.0500758573223404,0
0.49375,1.56,-0.05049014916667344,0
0.49583333333333335,1.56,-0.05090387488706918,0
0.4979166666666667,1.57,-0.041317030002675684,0
0.5,1.57,-0.04172961005337313,0
0.5020833333333333,1.57,-0.042141610599916286,0
0.5041666666666667,1.57,-0.04255302722407774,0
0.50625,1.57,-0.0429638555287905,0
0.5083333333333333,1.57,-0.043374091138290265,0
0.5104166666666666,1.57,-0.04378372969825662,0
0.5125,1.56,-0.05419276687595368,0
0.5145833333333333,1.56,-0.0546011983603695,0
0.5166666666666667,1.57,-0.04500901986235536,0
0.51875,1.57,-0.04541622711476598,0
0.5208333333333334,1.57,-0.04582281587259775,0
0.5229166666666667,1.57,-0.04622878191312682,0
0.525,1.58,-0.036634121036046866,0
0.5270833333333333,1.58,-0.03703882906360416,0
0.5291666666666667,1.58,-0.03744290184073504,0
0.53125,1.58,-0.03784633523520185,0
0.5333333333333333,1.57,-0.048249125137726175,0
0.5354166666666667,1.58,-0.03865126746212472,0
0.5375,1.58,-0.03905275814544136,0
0.5395833333333333,1.58,-0.03945359314808218,0
0.5416666666666666,1.58,-0.039853768453947065,0
0.54375,1.58,-0.0402532800705616,0
0.5458333333333333,1.58,-0.04065212402920819,0
0.5479166666666667,1.59,-0.03105029638505536,0
0.55,1.58,-0.04144779321728802,0
0.5520833333333334,1.59,-0.0318446106292357,0
0.5541666666666667,1.58,-0.04224074474850131,0
0.55625,1.58,-0.04263619172708791,0
0.5583333333333333,1.58,-0.04303094774152552,0
0.5604166666666667,1.58,-0.0434250089929966,0
0.5625,1.59,-0.03381837170746085,0
0.5645833333333333,1.59,-0.034211032135780056,0
0.5666666666666667,1.59,-0.034602986553842696,0
0.56875,1.59,-0.03499423126268665,0
0.5708333333333333,1.59,-0.035384762588620486,0
0.5729166666666666,1.59,-0.03577457688334576,0
0.575,1.59,-0.036163670524077,0
0.5770833333333333,1.59,-0.03655203991366088,0
0.5791666666666667,1.59,-0.03693968148069432,0
0.58125,1.59,-0.03732659167964114,0
0.5833333333333334,1.6,-0.02771276699094904,0
0.5854166666666667,1.6,-0.028098203921165542,0
0.5875,1.6,-0.0284828990030521,0
0.5895833333333333,1.6,-0.028866848795697553,0
0.5916666666666667,1.6,-0.02925004988463044,0
0.59375,1.6,-0.02963249888193181,0
0.5958333333333333,1.6,-0.030014192426345433,0
0.5979166666666667,1.6,-0.030395127183388194,0
0.6,1.6,-0.030775299845458726,0
0.6020833333333333,1.61,-0.021154707131945925,0
0.6041666666666666,1.62,-0.011533345789334019,0
0.60625,1.63,-0.0019112125913091707,0
0.6083333333333333,1.63,-0.002288304338863713,0
0.6104166666666667,1.64,0.0073353821395992745,0
0.6125,1.64,0.006959849988164769,0
0.6145833333333334,1.65,0.01658510232330354,0
0.6166666666666667,1.65,0.016211142233772832,0
0.61875,1.65,0.015837972780517233,0
0.6208333333333333,1.65,0.015465596996568964,0
0.6229166666666667,1.64,0.005094017886951983,0
0.625,1.64,0.004723238428586993,0
0.6270833333333333,1.64,0.0043532615701978375,0
0.6291666666666667,1.65,0.013984090232219182,0
0.63125,1.66,0.023615727306703076,0
0.6333333333333333,1.66,0.023248175657228573,0
0.6354166666666666,1.67,0.03288143811881161,0
0.6375,1.68,0.04251551749781714,0
0.6395833333333333,1.68,0.042150416571873545,0
0.6416666666666667,1.69,0.05178613808978806,0
0.64375,1.7,0.06142268477146097,0
0.6458333333333334,1.7,0.0610600593078021,0
0.6479166666666667,1.7,0.060698264360649595,0
0.65,1.7,0.06033730256269053,0
0.6520833333333333,1.7,0.05997717651738236,0
0.6541666666666667,1.7,0.05961788879887536,0
0.65625,1.69,0.04925944195193762,0
0.6583333333333333,1.69,0.04890183849187963,0
0.6604166666666667,1.68,0.03854508090448106,0
0.6625,1.67,0.028189171645919827,0
0.6645833333333333,1.66,0.017834113142702772,0
0.6666666666666666,1.65,0.007479907791597332,0
0.66875,1.65,0.007126557959562879,0
0.6708333333333333,1.64,-0.0032259340163156925,0
0.6729166666666667,1.64,-0.0035775658288903197,0
0.675,1.63,-0.013928335201011513,0
0.6770833333333334,1.63,-0.0142782398855909,0
0.6791666666666667,1.62,-0.024627277665659662,0
0.68125,1.61,-0.03497544635442738,0
0.6833333333333333,1.61,-0.03532274379533777,0
0.6854166666666667,1.6,-0.04566916786212339,0
0.6875,1.6,-0.04601471645885957,0
0.6895833333333333,1.6,-0.04635938752001654,0
0.6916666666666667,1.59,-0.0567031790105094,0
0.69375,1.59,-0.05704608892574566,0
0.6958333333333333,1.59,-0.05738811529167431,0
0.6979166666666666,1.58,-0.0677292561648305,0
0.7,1.58,-0.06806950963237934,0
0.7020833333333333,1.58,-0.06840887381215673,0
0.7041666666666667,1.58,-0.06874734685270922,0
0.70625,1.58,-0.06908492693333271,0
0.7083333333333334,1.58,-0.06942161226410865,0
0.7104166666666667,1.58,-0.0697574010859388,0
0.7125,1.57,-0.080092291670578,0
0.7145833333333333,1.57,-0.08042628232066683,0
0.7166666666666667,1.57,-0.08075937136976118,0
0.71875,1.57,-0.08109155718236001,0
0.7208333333333333,1.58,-0.0714228381539321,0
0.7229166666666667,1.58,-0.07175321271093987,0
0.725,1.58,-0.07208267931086271,0
0.7270833333333333,1.58,-0.072411236442217,0
0.7291666666666666,1.58,-0.0727388826245757,0
0.73125,1.58,-0.07306561640858439,0
0.7333333333333333,1.58,-0.07339143637597625,0
0.7354166666666667,1.59,-0.0637163411395852,0
0.7375,1.59,-0.06404032934335764,0
0.7395833333333334,1.59,-0.0643633996623614,0
0.7416666666666667,1.6,-0.05468555080279388,0
0.74375,1.59,-0.06500678150198688,0
0.7458333333333333,1.6,-0.05532709052840851,0
0.7479166666666667,1.59,-0.06564647668166765,0
0.75,1.6,-0.0559649387925098,0
0.7520833333333333,1.6,-0.05628247572281633,0
0.7541666666666667,1.6,-0.05659908636559785,0
0.75625,1.6,-0.056914769644987304,0
0.7583333333333333,1.6,-0.05722952451623078,0
0.7604166666666666,1.6,-0.05754334996567638,0
0.7625,1.6,-0.057856245010760164,0
0.7645833333333333,1.6,-0.058168208699990634,0
0.7666666666666667,1.59,-0.06847924011293204,0
0.76875,1.58,-0.07878933836018409,0
0.7708333333333334,1.58,-0.07909850258336051,0
0.7729166666666667,1.58,-0.07940673195506338,0
0.775,1.57,-0.08971402567885736,0
0.7770833333333333,1.58,-0.08002038298923977,0
0.7791666666666667,1.59,-0.07032580315160966,0
0.78125,1.59,-0.07063028546223413,0
0.7833333333333333,1.63,-0.030933829248211808,0
0.7854166666666667,1.68,0.018763566132566183,0
0.7875,1.76,0.09846190129145654,0
0.7895833333333333,1.87,0.20816117680910656,0
0.7916666666666666,2.0,0.3378613932355017,0
0.79375,2.15,0.48756255109001456,0
0.7958333333333333,2.32,0.6572646508614545,0
0.7979166666666667,2.48,0.8169676930081198,0
0.8,2.63,0.9666716779578517,0
0.8020833333333334,2.75,1.086376606108094,0
0.8041666666666667,2.81,1.1460824778259537,0
0.80625,2.8,1.1357892934482652,0
0.8083333333333333,2.72,1.0554970532816546,0
0.8104166666666667,2.61,0.9452057576026113,0
0.8125,2.47,0.8049154066575626,0
0.8145833333333333,2.32,0.6546260006629393,0
0.8166666666666667,2.17,0.5043375398052592,0
0.81875,2.04,0.37405002424119943,0
0.8208333333333333,1.92,0.25376345409768275,0
0.8229166666666666,1.83,0.16347782947196185,0
0.825,1.77,0.10319315043170693,0
0.8270833333333333,1.71,0.04290941701509697,0
0.8291666666666667,1.68,0.012626629230910735,0
0.83125,1.66,-0.007655212941379108,0
0.8333333333333334,1.65,-0.01793610955150987,0
0.8354166666666667,1.64,-0.028216060678330185,0
0.8375,1.63,-0.03849506642969602,0
0.8395833333333333,1.62,-0.048773126942366185,0
0.8416666666666667,1.62,-0.0490502423818964,0
0.84375,1.62,-0.049326412942529235,0
0.8458333333333333,1.62,-0.04960163884708249,0
0.8479166666666667,1.62,-0.04987592034683572,0
0.85,1.62,-0.05014925772141307,0
0.8520833333333333,1.61,-0.060421651278665334,0
0.8541666666666666,1.61,-0.06069310135454836,0
0.85625,1.61,-0.06096360831299974,0
0.8583333333333333,1.61,-0.06123317254581212,0
0.8604166666666667,1.61,-0.06150179447250398,0
0.8625,1.61,-0.06176947454019005,0
0.8645833333333334,1.61,-0.062036213223449044,0
0.8666666666666667,1.61,-0.062302011024188975,0
0.86875,1.61,-0.06256686847151016,0
0.8708333333333333,1.61,-0.06283078612156631,0
0.8729166666666667,1.61,-0.06309376455742349,0
0.875,1.62,-0.05335580438891621,0
0.8770833333333333,1.62,-0.053616906252502594,0
0.8791666666666667,1.62,-0.05387707081111584,0
0.88125,1.62,-0.0541362987540151,0
0.8833333333333333,1.61,-0.06439459079663318,0
0.8854166666666666,1.62,-0.05465194768042231,0
0.8875,1.62,-0.05490837017269759,0
0.8895833333333333,1.62,-0.05516385906647847,0
0.8916666666666667,1.62,-0.05541841518032897,0
0.89375,1.63,-0.04567203935819428,0
0.8958333333333334,1.63,-0.04592473246923587,0
0.8979166666666667,1.63,-0.04617649540766447,0
0.9,1.63,-0.04642732909257127,0
0.9020833333333333,1.63,-0.04667723446775712,0
0.9041666666666667,1.63,-0.04692621250155954,0
0.90625,1.64,-0.03717426418667816,0
0.9083333333333333,1.64,-0.0374213905399985,0
0.9104166666666667,1.64,-0.03766759260241301,0
0.9125,1.65,-0.027912871438638673,0
0.9145833333333333,1.65,-0.028157228137036847,0
0.9166666666666666,1.66,-0.018400663809427953,0
0.91875,1.66,-0.018643179590905973,0
0.9208333333333333,1.67,-0.008884776639650746,0
0.9229166666666667,1.67,-0.009125456136736973,0
0.925,1.67,-0.009365219285940349,0
0.9270833333333334,1.68,0.00039593268645646273,0
0.9291666666666667,1.68,0.00015799853185924362,0
0.93125,1.68,-7.902302044024423e-05,0
0.9333333333333333,1.68,-0.000315133263064607,0
0.9354166666666667,1.68,-0.0005503335103500817,0
0.9375,1.69,0.009215374901856935,0
0.9395833333333333,1.7,0.018981990616404563,0
0.9416666666666667,1.71,0.02874951225504349,0
0.94375,1.72,0.03851793841863512,0
0.9458333333333333,1.72,0.0382872676873647,0
0.9479166666666666,1.73,0.048057498620951114,0
0.95,1.73,0.047828629758861194,0
0.9520833333333333,1.73,0.04760065962052572,0
0.9541666666666667,1.74,0.057373586705558186,0
0.95625,1.74,0.057147409493973865,0
0.9583333333333334,1.74,0.05692212644641016,0
0.9604166666666667,1.74,0.056697736004349325,0
0.9625,1.75,0.06647423659034252,0
0.9645833333333333,1.75,0.06625162660823652,0
0.9666666666666667,1.76,0.07602990444340198,0
0.96875,1.77,0.08580906846296382,0
0.9708333333333333,1.77,0.08558911701603258,0
0.9729166666666667,1.78,0.09537004843393646,0
0.975,1.79,0.10515186103045585,0
0.9770833333333333,1.8,0.11493455310205916,0
0.9791666666666666,1.81,0.12471812292814177,0
0.98125,1.82,0.13450256877126546,0
0.9833333333333333,1.82,0.13428788887739931,0
0.9854166666666667,1.83,0.14407408147616263,0
0.9875,1.84,0.15386114478106727,0
0.9895833333333334,1.85,0.16364907698976575,0
0.9916666666666667,1.86,0.1734378762842959,0
0.99375,1.87,0.18322754083133114,0
0.9958333333333333,1.88,0.19301806878242928,0
0.9979166666666667,1.89,0.20280945827428665,0
1.0,1.9,0.21260170742898865,0
1.0020833333333334,1.91,0.222394814354265,0
1.0041666666666667,1.91,0.22218877714374508,0
1.00625,1.92,0.2319835938772164,0
1.0083333333333333,1.93,0.24177926262088162,0
1.0104166666666667,1.94,0.2515757814276204,0
1.0125,1.94,0.25137314833724905,0
1.0145833333333334,1.95,0.2611713613767854,0
1.0166666666666666,1.95,0.26097041856071307,0
1.01875,1.96,0.27077031789124517,0
1.0208333333333333,1.96,0.2705710573585919,0
1.0229166666666667,1.96,0.2703726349412272,0
1.025,1.96,0.270175048606159,0
1.0270833333333333,1.96,0.26997829630919906,0
1.0291666666666666,1.96,0.26978237599523436,0
1.03125,1.96,0.2695872855984981,0
1.0333333333333334,1.96,0.2693930230428443,0
1.0354166666666667,1.96,0.2691995862420213,0
1.0375,1.96,0.26900697309994787,0
1.0395833333333333,1.96,0.26881518151099026,0
1.0416666666666667,1.96,0.2686242093602389,0
1.04375,1.95,0.25843405452378715,0
1.0458333333333334,1.94,0.24824471486900967,0
1.0479166666666666,1.94,0.24805618825484338,0
1.05,1.93,0.23786847253206891,0
1.0520833333333333,1.92,0.22768156554359184,0
1.0541666666666667,1.91,0.21749546512472318,0
1.05625,1.89,0.19731016910346336,0
1.0583333333333333,1.88,0.1871256753007846,0
1.0604166666666666,1.87,0.17694198153091661,0
1.0625,1.86,0.1667590856016293,0
1.0645833333333334,1.84,0.1465769853145206,0
1.0666666666666667,1.82,0.1263956784653003,0
1.06875,1.81,0.1162151628440768,0
1.0708333333333333,1.79,0.09603543623564385,0
1.0729166666666667,1.77,0.07585649641976679,0
1.075,1.76,0.06567834117147049,0
1.0770833333333334,1.74,0.04550096826132477,0
1.0791666666666666,1.74,0.04532437545573209,0
1.08125,1.73,0.03514856051721482,0
1.0833333333333333,1.72,0.024973521204703697,0
1.0854166666666667,1.7,0.004799255273825381,0
1.0875,1.69,-0.005374239522807439,0
1.0895833333333333,1.67,-0.025546965435310792,0
1.0916666666666666,1.66,-0.03571892471623919,0
1.09375,1.65,-0.04589011962030001,0
1.0958333333333334,1.64,-0.056060552404066044,0
1.0979166666666667,1.62,-0.07623022532568918,0
1.1,1.62,-0.07639914064461295,0
1.1020833333333333,1.61,-0.0865673006212852,0
1.1041666666666667,1.6,-0.09673470751687277,0
1.10625,1.59,-0.10690136359297597,0
1.1083333333333334,1.59,-0.10706727111134157,0
1.1104166666666666,1.58,-0.11723243233358038,0
1.1125,1.58,-0.11739684952088203,0
1.1145833333333333,1.57,-0.1275605249337316,0
1.1166666666666667,1.57,-0.12772346083162633,0
1.11875,1.57,-0.1278856594727934,0
1.1208333333333333,1.56,-0.13804712311390932,0
1.1229166666666666,1.56,-0.1382078540098185,0
1.125,1.56,-0.1383678544132533,0
1.1270833333333334,1.56,-0.13852712657455504,0
1.1291666666666667,1.56,-0.13868567274139587,0
1.13125,1.56,-0.138843495158501,0
1.1333333333333333,1.56,-0.1390005960673729,0
1.1354166666666667,1.56,-0.13915697770601634,0
1.1375,1.56,-0.13931264230866433,0
1.1395833333333334,1.56,-0.13946759210550522,0
1.1416666666666666,1.56,-0.13962182932241052,0
1.14375,1.56,-0.13977535618066472,0
1.1458333333333333,1.56,-0.13992817489669776,0
1.1479166666666667,1.56,-0.14008028768181646,0
1.15,1.56,-0.14023169674193708,0
1.1520833333333333,1.56,-0.14038240427732007,0
1.1541666666666666,1.56,-0.14053241248230644,0
1.15625,1.56,-0.14068172354505518,0
1.1583333333333334,1.56,-0.1408303396472838,0
1.1604166666666667,1.56,-0.14097826296400712,0
1.1625,1.55,-0.15112549566327954,0
1.1645833333333333,1.55,-0.15127203990593896,0
1.1666666666666667,1.55,-0.15141789784535362,0
1.16875,1.55,-0.15156307162716942,0
1.1708333333333334,1.56,-0.1417075633890575,0
1.1729166666666666,1.56,-0.14185137526046399,0
1.175,1.56,-0.1419945093623605,0
1.1770833333333333,1.56,-0.1421369678069992,0
1.1791666666666667,1.56,-0.14227875269766765,0
1.18125,1.57,-0.13241986612844608,0
1.1833333333333333,1.56,-0.14256031018396745,0
1.1854166666666666,1.56,-0.1427000869391781,0
1.1875,1.57,-0.1328391984591009,0
1.1895833333333334,1.57,-0.13297764679860016,0
1.1916666666666667,1.58,-0.12311543400215086,0
1.19375,1.58,-0.1232525621036071,0
1.1958333333333333,1.58,-0.12338903312597206,0
1.1979166666666667,1.58,-0.12352484908117083,0
1.2,1.58,-0.123660011969826,0
1.2020833333333334,1.58,-0.12379452378103521,0
1.2041666666666666,1.58,-0.12392838649215011,0
1.20625,1.58,-0.1240616020685582,0
1.2083333333333333,1.59,-0.11419417246346715,0
1.2104166666666667,1.59,-0.11432609961768968,0
1.2125,1.59,-0.114457385459433,0
1.2145833333333333,1.59,-0.11458803190409024,0
1.2166666666666666,1.59,-0.11471804085403267,0
1.21875,1.59,-0.114847414198405,0
1.2208333333333334,1.59,-0.11497615381292231,0
1.2229166666666667,1.59,-0.11510426155966932,0
1.225,1.59,-0.11523173928690326,0
1.2270833333333333,1.59,-0.11535858882885859,0
1.2291666666666667,1.59,-0.11548481200555429,0
1.23125,1.59,-0.11561041062260285,0
1.2333333333333334,1.6,-0.10573538647102179,0
1.2354166666666666,1.59,-0.11585974132704806,0
1.2375,1.6,-0.10598347695195293,0
1.2395833333333333,1.6,-0.10610659509186485,0
1.2416666666666667,1.6,-0.1062290974775886,0
1.24375,1.6,-0.10635098582443074,0
1.2458333333333333,1.6,-0.10647226183202574,0
1.2479166666666666,1.6,-0.10659292718416541,0
1.25,1.6,-0.10671298354863105,0
1.2520833333333334,1.6,-0.10683243257702976,0
1.2541666666666667,1.6,-0.10695127590463192,0
1.25625,1.61,-0.09706951515021132,0
1.2583333333333333,1.61,-0.09718715191588803,0
1.2604166666666667,1.6,-0.10730418778697287,0
1.2625,1.6,-0.10742062433181526,0
1.2645833333333334,1.61,-0.09753646310165447,0
1.2666666666666666,1.61,-0.09765170563047362,0
1.26875,1.61,-0.09776635343485673,0
1.2708333333333333,1.6,-0.10788040801384673,0
1.2729166666666667,1.6,-0.10799387084880913,0
1.275,1.6,-0.108106743403296,0
1.2770833333333333,1.6,-0.10821902712291334,0
1.2791666666666666,1.6,-0.10833072343519101,0
1.28125,1.6,-0.10844183374945551,0
1.2833333333333334,1.59,-0.11855235945670693,0
1.2854166666666667,1.59,-0.11866230192949671,0
1.2875,1.59,-0.11877166252181151,0
1.2895833333333333,1.59,-0.11888044256895691,0
1.2916666666666667,1.59,-0.1189886433874451,0
1.29375,1.59,-0.11909626627488512,0
1.2958333333333334,1.59,-0.11920331250987602,0
1.2979166666666666,1.59,-0.11930978335190238,0
1.3,1.59,-0.11941568004123447,0
1.3020833333333333,1.59,-0.11952100379883017,0
1.3041666666666667,1.59,-0.11962575582623905,0
1.30625,1.59,-0.1197299373055101,0
1.3083333333333333,1.6,-0.10983354939910248,0
1.3104166666666666,1.59,-0.11993659324979956,0
1.3125,1.59,-0.12003906998062427,0
1.3145833333333334,1.59,-0.12014098069476087,0
1.3166666666666667,1.6,-0.11024232647547666,0
1.31875,1.6,-0.1103431083860481,0
1.3208333333333333,1.6,-0.11044332746968713,0
1.3229166666666667,1.6,-0.11054298474947409,0
1.325,1.59,-0.12064208122829195,0
1.3270833333333334,1.6,-0.1107406178887624,0
1.3291666666666666,1.6,-0.11083859569318963,0
1.33125,1.6,-0.11093601558350098,0
1.3333333333333333,1.6,-0.11103287848119477,0
1.3354166666666667,1.6,-0.11112918528728907,0
1.3375,1.59,-0.12122493688227406,0
1.3395833333333333,1.59,-0.12132013412606742,0
1.3416666666666666,1.59,-0.1214147778579744,0
1.34375,1.59,-0.1215088688966491,0
1.3458333333333334,1.59,-0.121602408040059,0
1.3479166666666667,1.59,-0.12169539606545277,0
1.35,1.59,-0.12178783372933176,0
1.3520833333333333,1.59,-0.12187972176742239,0
1.3541666666666667,1.59,-0.12197106089465348,0
1.35625,1.59,-0.12206185180513546,0
1.3583333333333334,1.59,-0.12215209517214255,0
1.3604166666666666,1.6,-0.11224179164809803,0
1.3625,1.59,-0.1223309418645635,0
1.3645833333333333,1.6,-0.11241954643222862,0
1.3666666666666667,1.6,-0.11250760594090728,0
1.36875,1.6,-0.11259512095953288,0
1.3708333333333333,1.6,-0.11268209203615885,0
1.3729166666666666,1.6,-0.11276851969796275,0
1.375,1.6,-0.11285440445125253,0
1.3770833333333334,1.61,-0.10293974678147527,0
1.3791666666666667,1.61,-0.10302454715322903,0
1.38125,1.61,-0.1031088060102783,0
1.3833333333333333,1.61,-0.10319252377557225,0
1.3854166666666667,1.61,-0.10327570085126542,0
1.3875,1.62,-0.09335833761874224,0
1.3895833333333334,1.62,-0.09344043443864367,0
1.3916666666666666,1.62,-0.09352199165089733,0
1.39375,1.62,-0.0936030095747499,0
1.3958333333333333,1.62,-0.09368348850880406,0
1.3979166666666667,1.62,-0.09376342873105664,0
1.4,1.63,-0.08384283049893983,0
1.4020833333333333,1.62,-0.09392169404936399,0
1.4041666666666666,1.62,-0.09400001959876622,0
1.40625,1.62,-0.09407780734315782,0
1.4083333333333334,1.62,-0.09415505745817854,0
1.4104166666666667,1.62,-0.09423177009915154,0
1.4125,1.63,-0.08430794540114232,0
1.4145833333333333,1.62,-0.09438358347901933,0
1.4166666666666667,1.62,-0.09445868442751774,0
1.41875,1.62,-0.09453324832130497,0
1.4208333333333334,1.62,-0.09460727521505098,0
1.4229166666666666,1.62,-0.09468076514349995,0
1.425,1.62,-0.09475371812154554,0
1.4270833333333333,1.62,-0.09482613414430784,0
1.4291666666666667,1.62,-0.0948980131872136,0
1.43125,1.62,-0.09496935520607877,0
1.4333333333333333,1.63,-0.0850401601371952,0
1.4354166666666666,1.63,-0.08511042789741773,0
1.4375,1.63,-0.08518015838425584,0
1.4395833333333334,1.63,-0.08524935147596537,0
1.4416666666666667,1.63,-0.08531800703164556,0
1.44375,1.63,-0.08538612489133751,0
1.4458333333333333,1.63,-0.08545370487612483,0
1.4479166666666667,1.63,-0.08552074678823823,0
1.45,1.63,-0.08558725041116129,0
1.4520833333333334,1.63,-0.08565321550973919,0
1.4541666666666666,1.63,-0.08571864183028943,0
1.45625,1.63,-0.08578352910071625,0
1.4583333333333333,1.63,-0.08584787703062655,0
1.4604166666666667,1.64,-0.07591168531144787,0
1.4625,1.64,-0.0759749536165498,0
1.4645833333333333,1.63,-0.08603768160136725,0
1.4666666666666666,1.63,-0.08609986890352629,0
1.46875,1.64,-0.07616151514297269,0
1.4708333333333334,1.63,-0.08622261992210137,0
1.4729166666666667,1.63,-0.08628318282589006,0
1.475,1.63,-0.08634320342203299,0
1.4770833333333333,1.63,-0.08640268126108006,0
1.4791666666666667,1.63,-0.08646161587657666,0
1.48125,1.63,-0.0865200067852052,0
1.4833333333333334,1.63,-0.08657785348693015,0
1.4854166666666666,1.63,-0.08663515546514393,0
1.4875,1.63,-0.08669191218681499,0
1.4895833333333333,1.64,-0.0767481231026395,0
1.4916666666666667,1.64,-0.07680378764719228,0
1.49375,1.63,-0.0868589052390832,0
1.4958333333333333,1.64,-0.07691347528111486,0
1.4979166666666666,1.64,-0.07696749716043991,0
1.5,1.64,-0.07702097024872324,0
1.5020833333333334,1.64,-0.07707389390230437,0
1.5041666666666667,1.64,-0.07712626746236352,0
1.50625,1.64,-0.07717809025508784,0
1.5083333333333333,1.64,-0.07722936159184031,0
1.5104166666666667,1.64,-0.07728008076933077,0
1.5125,1.64,-0.07733024706978896,0
1.5145833333333334,1.64,-0.07737985976113919,0
1.5166666666666666,1.65,-0.06742891809717588,0
1.51875,1.65,-0.06747742131774336,0
1.5208333333333333,1.66,-0.057525368648915706,0
1.5229166666666667,1.67,-0.047572759303178724,0
1.525,1.68,-0.03761959247961319,0
1.5270833333333333,1.68,-0.03766586736408031,0
1.5291666666666666,1.68,-0.03771158312940823,0
1.53125,1.69,-0.02775673893558131,0
1.5333333333333334,1.69,-0.027801333929931143,0
1.5354166666666667,1.69,-0.027845367247327613,0
1.5375,1.69,-0.02788883801037323,0
1.5395833333333333,1.69,-0.02793174532959694,0
1.5416666666666667,1.69,-0.02797408830365039,0
1.54375,1.69,-0.028015866019506064,0
1.5458333333333334,1.69,-0.028057077552655907,0
1.5479166666666666,1.69,-0.028097721967312417,0
1.55,1.7,-0.018137798316612275,0
1.5520833333333333,1.7,-0.01817730564281811,0
1.5541666666666667,1.7,-0.018216242977524333,0
1.55625,1.71,-0.008254609341862035,0
1.5583333333333333,1.71,-0.008292403746706006,0
1.5604166666666666,1.72,0.001670374807117847,0
1.5625,1.73,0.011633727328621446,0
1.5645833333333334,1.74,0.021597654836444463,0
1.5666666666666667,1.74,0.021562158358640227,0
1.56875,1.74,0.02152723893246325,0
1.5708333333333333,1.74,0.021492897604153266,0
1.5729166666666667,1.74,0.02145913542872141,0
1.575,1.74,0.021425953469733194,0
1.5770833333333334,1.73,0.011393352799090511,0
1.5791666666666666,1.72,0.0013613344968130825,0
1.58125,1.71,-0.00867010034918135,0
1.5833333333333333,1.7,-0.018700950643295147,0
1.5854166666666667,1.69,-0.02873121528247191,0
1.5875,1.69,-0.028760893156419873,0
1.5895833333333333,1.68,-0.038789983147834384,0
1.5916666666666666,1.68,-0.0388184841326215,0
1.59375,1.67,-0.04884639498012246,0
1.5958333333333334,1.66,-0.058873714553338743,0
1.5979166666666667,1.66,-0.05890044170915783,0
1.6,1.65,-0.06892657529858079,0
1.6020833333333333,1.65,-0.06895211416695098,0
1.6041666666666667,1.65,-0.06897705715418065,0
1.60625,1.65,-0.06900140309497906,0
1.6083333333333334,1.65,-0.06902515081908181,0
1.6104166666666666,1.65,-0.06904829915148118,0
1.6125,1.65,-0.06907084691265622,0
1.6145833333333333,1.65,-0.06909279291880357,0
1.6166666666666667,1.64,-0.07911413598206846,0
1.61875,1.64,-0.07913487491077503,0
1.6208333333333333,1.64,-0.07915500850965934,0
1.6229166666666666,1.64,-0.07917453558010043,0
1.625,1.64,-0.0791934549203534,0
1.6270833333333334,1.64,-0.07921176532578247,0
1.6291666666666667,1.65,-0.0692294655890936,0
1.63125,1.65,-0.06924655450056873,0
1.6333333333333333,1.65,-0.06926303084829988,0
1.6354166666666667,1.65,-0.06927889341842366,0
1.6375,1.64,-0.07929414099535441,0
1.6395833333333334,1.64,-0.07930877236201773,0
1.6416666666666666,1.64,-0.07932278630008446,0
1.64375,1.64,-0.07933618159020456,0
1.6458333333333333,1.64,-0.0793489570122409,0
1.6479166666666667,1.64,-0.07936111134550314,0
1.65,1.65,-0.06937264336898175,0
1.6520833333333333,1.65,-0.06938355186158254,0
1.6541666666666666,1.65,-0.06939383560236045,0
1.65625,1.65,-0.06940349337075397,0
1.6583333333333334,1.65,-0.06941252394681753,0
1.6604166666666667,1.65,-0.06942092611145553,0
1.6625,1.65,-0.06942869864665463,0
1.6645833333333333,1.65,-0.06943584033571598,0
1.6666666666666667,1.65,-0.06944234996348722,0
1.66875,1.65,-0.06944822631659406,0
1.6708333333333334,1.65,-0.0694534681836716,0
1.6729166666666666,1.65,-0.06945807435559459,0
1.675,1.65,-0.06946204362570818,0
1.6770833333333333,1.65,-0.06946537479005717,0
1.6791666666666667,1.65,-0.06946806664761501,0
1.68125,1.65,-0.06947011800051195,0
1.6833333333333333,1.65,-0.06947152765426384,0
1.6854166666666666,1.64,-0.07947229441799869,0
1.6875,1.64,-0.07947241710468288,0
1.6895833333333334,1.64,-0.07947189453134572,0
1.6916666666666667,1.63,-0.08947072551930349,0
1.69375,1.63,-0.08946890889438422,0
1.6958333333333333,1.62,-0.09946644348715052,0
1.6979166666666667,1.62,-0.09946332813312178,0
1.7,1.63,-0.08945956167299528,0
1.7020833333333334,1.65,-0.06945514295286567,0
1.7041666666666666,1.69,-0.02945007082444437,0
1.70625,1.77,0.050555655854722686,0
1.7083333333333333,1.87,0.15056203822103892,0
1.7104166666666667,2.0,0.28056907740464115,0
1.7125,2.16,0.4405767745291871,0
1.7145833333333333,2.33,0.6105851307116412,0
1.7166666666666666,2.51,0.7905941470620627,0
1.71875,2.67,0.9506038246833941,0
1.7208333333333334,2.8,1.0806141646712506,0
1.7229166666666667,2.88,1.1606251681137172,0
1.725,2.89,1.1706368360911392,0
1.7270833333333333,2.84,1.1206491696759224,0
1.7291666666666667,2.74,1.0206621699323257,0
1.73125,2.61,0.8906758379162604,0
1.7333333333333334,2.46,0.7406901746750942,0
1.7354166666666666,2.3,0.5807051812474523,0
1.7375,2.15,0.43072085866302057,0
1.7395833333333333,2.01,0.2907372079423496,0
1.7416666666666667,1.91,0.19075423009666392,0
1.74375,1.82,0.10077192612766944,0
1.7458333333333333,1.75,0.030790297027363717,0
1.7479166666666666,1.72,0.0008093437778470963,0
1.75,1.69,-0.02917093264886335,0
1.7520833333333334,1.67,-0.04915053129101954,0
1.7541666666666667,1.66,-0.059129451197325766,0
1.75625,1.66,-0.059107691427119136,0
1.7583333333333333,1.66,-0.059085251050551124,0
1.7604166666666667,1.66,-0.059062129148765796,0
1.7625,1.66,-0.0590383248140777,0
1.7645833333333334,1.66,-0.059013837150146714,0
1.7666666666666666,1.66,-0.05898866527215116,0
1.76875,1.65,-0.06896280830696047,0
1.7708333333333333,1.65,-0.06893626539330472,0
1.7729166666666667,1.65,-0.06890903568194287,0
1.775,1.65,-0.06888111833582969,0
1.7770833333333333,1.65,-0.0688525125302814,0
1.7791666666666666,1.65,-0.06882321745313744,0
1.78125,1.65,-0.06879323230492321,0
1.7833333333333334,1.65,-0.06876255629900968,0
1.7854166666666667,1.65,-0.06873118866177125,0
1.7875,1.65,-0.06869912863274291,0
1.7895833333333333,1.65,-0.06866637546477486,0
1.7916666666666667,1.65,-0.06863292842418739,0
1.79375,1.65,-0.06859878679092207,0
1.7958333333333334,1.66,-0.05856394985869094,0
1.7979166666666666,1.66,-0.058528416935124505,0
1.8,1.66,-0.05849218734191841,0
1.8020833333333333,1.66,-0.05845526041497834,0
1.8041666666666667,1.66,-0.05841763550456325,0
1.80625,1.67,-0.04837931197542712,0
1.8083333333333333,1.67,-0.048340289206958015,0
1.8104166666666666,1.66,-0.0583005665933133,0
1.8125,1.67,-0.04826014354355694,0
1.8145833333333334,1.67,-0.04821901948179402,0
1.8166666666666667,1.68,-0.03817719384730124,0
1.81875,1.68,-0.03813466609465718,0
1.8208333333333333,1.68,-0.03809143569387234,0
1.8229166666666667,1.68,-0.038047502130515734,0
1.825,1.68,-0.038002864905839456,0
1.8270833333333334,1.69,-0.02795752353690202,0
1.8291666666666666,1.69,-0.027911477556689976,0
1.83125,1.7,-0.017864726514238115,0
1.8333333333333333,1.71,-0.007817269974746868,0
1.8354166666666667,1.72,0.002230892480301061,0
1.8375,1.72,0.0022797612530280342,0
1.8395833333333333,1.72,0.002329336729048871,0
1.8416666666666666,1.72,0.002379619277360162,0
1.84375,1.72,0.002430609250232786,0
1.8458333333333334,1.73,0.012482306983105797,0
1.8479166666666667,1.73,0.01253471279448258,0
1.85,1.73,0.012587826985827846,0
1.8520833333333333,1.74,0.022641649841466927,0
1.8541666666666667,1.74,0.02269618162848728,0
1.85625,1.74,0.022751422596641716,0
1.8583333333333334,1.74,0.022807372978252145,0
1.8604166666666666,1.74,0.02286403298811718,0
1.8625,1.75,0.03292140282342139,0
1.8645833333333333,1.75,0.03297948266364671,0
1.8666666666666667,1.76,0.043038272670485954,0
1.86875,1.76,0.043097772987758534,0
1.8708333333333333,1.77,0.0531579837413282,0
1.8729166666666666,1.78,0.06321890503902199,0
1.875,1.78,0.0632805369705518,0
1.8770833333333334,1.78,0.06334287960743759,0
1.8791666666666667,1.79,0.07340593300293227,0
1.88125,1.8,0.08346969719194962,0
1.8833333333333333,1.8,0.0835341721909945,0
1.8854166666666667,1.81,0.09359935799809418,0
1.8875,1.81,0.09366525459273178,0
1.8895833333333334,1.82,0.10373186193578278,0
1.8916666666666666,1.83,0.11379917996945352,0
1.89375,1.84,0.12386720861721869,0
1.8958333333333333,1.84,0.12393594778376615,0
1.8979166666666667,1.85,0.13400539735494066,0
1.9,1.86,0.14407555719768922,0
1.9020833333333333,1.87,0.15414642716000843,0
1.9041666666666666,1.88,0.1642180070708959,0
1.90625,1.89,0.174290296740304,0
1.9083333333333334,1.9,0.1843632959590929,0
1.9104166666666667,1.91,0.19443700449898846,0
1.9125,1.92,0.20451142211254186,0
1.9145833333333333,1.93,0.21458654853309106,0
1.9166666666666667,1.93,0.21466238347472283,0
1.91875,1.95,0.23473892663223836,0
1.9208333333333334,1.95,0.23481617768111987,0
1.9229166666666666,1.96,0.24489413627750165,0
1.925,1.96,0.24497280205814137,0
1.9270833333333333,1.97,0.25505217464039504,0
1.9291666666666667,1.97,0.25513225362219366,0
1.93125,1.98,0.2652130385820203,0
1.9333333333333333,1.98,0.2652945290788892,0
1.9354166666666666,1.98,0.26537672465233086,0
1.9375,1.99,0.2754596248223771,0
1.9395833333333334,1.99,0.27554322908954826,0
1.9416666666666667,2.0,0.2856275369348407,0
1.94375,2.0,0.2857125478197178,0
1.9458333333333333,2.0,0.2857982611861031,0
1.9479166666666667,2.01,0.29588467645637473,0
1.95,2.0,0.2859717930333638,0
1.9520833333333334,2.01,0.29605961030035205,0
1.9541666666666666,2.0,0.28614812762107483,0
1.95625,2.0,0.28623734433972214,0
1.9583333333333333,1.99,0.2763272597809449,0
1.9604166666666667,1.99,0.2764178732498623,0
1.9625,1.98,0.2665091840320709,0
1.9645833333333333,1.97,0.25660119139365584,0
1.9666666666666666,1.97,0.25669389458120373,0
1.96875,1.96,0.24678729282181627,0
1.9708333333333334,1.95,0.23688138532312686,0
1.9729166666666667,1.94,0.22697617127331968,0
1.975,1.93,0.2170716498411505,0
1.9770833333333333,1.92,0.20716782017596966,0
1.9791666666666667,1.9,0.18726468140774435,0
1.98125,1.89,0.17736223264708706,0
1.9833333333333334,1.88,0.16746047298528124,0
1.9854166666666666,1.87,0.15755940149431086,0
1.9875,1.85,0.13765901722689045,0
1.9895833333333333,1.84,0.1277593192165005,0
1.9916666666666667,1.82,0.10786030647742009,0
1.99375,1.81,0.0979619780047628,0
1.9958333333333333,1.79,0.07806433277451326,0
1.9979166666666666,1.78,0.06816736974356674,0
2.0,1.76,0.04827108784977063,0
2.002083333333333,1.75,0.03837548601196347,0
2.004166666666667,1.74,0.028480563130019704,0
2.00625,1.73,0.018586318084895026,0
2.0083333333333333,1.72,0.00869274973867043,0
2.0104166666666665,1.71,-0.0012001430653994505,0
2.0125,1.69,-0.021092361502837498,0
2.0145833333333334,1.68,-0.030983906767894864,0
2.0166666666666666,1.67,-0.04087478007349882,0
2.01875,1.66,-0.05076498265120011,0
2.0208333333333335,1.65,-0.0606545157511198,0
2.0229166666666667,1.65,-0.060543380641895794,0
2.025,1.64,-0.07043157861062707,0
2.027083333333333,1.64,-0.07031911096281579,0
2.029166666666667,1.63,-0.08020597902230858,0
2.03125,1.62,-0.09009218413123804,0
2.033333333333333,1.62,-0.08997772764996342,0
2.035416666666667,1.62,-0.08986261095700981,0
2.0375,1.61,-0.09974683544900748,0
2.0395833333333333,1.61,-0.09963040254062838,0
2.0416666666666665,1.61,-0.09951331366452215,0
2.04375,1.6,-0.1093955702712508,0
2.0458333333333334,1.6,-0.10927717382922358,0
2.0479166666666666,1.6,-0.10915812582463058,0
2.05,1.59,-0.11903842776137719,0
2.0520833333333335,1.6,-0.1089180811610169,0
2.0541666666666667,1.59,-0.11879708756268303,0
2.05625,1.59,-0.11867544852301798,0
2.058333333333333,1.59,-0.11855316561610632,0
2.060416666666667,1.59,-0.11843024043340533,0
2.0625,1.59,-0.11830667458367261,0
2.064583333333333,1.59,-0.11818246969289425,0
2.066666666666667,1.59,-0.1180576274042141,0
2.06875,1.59,-0.1179321493778622,0
2.0708333333333333,1.59,-0.11780603729108138,0
2.0729166666666665,1.58,-0.1276792928380531,0
2.075,1.58,-0.1275519177298245,0
2.0770833333333334,1.59,-0.11742391369423325,0
2.0791666666666666,1.59,-0.11729528247583323,0
2.08125,1.59,-0.11716602583582097,0
2.0833333333333335,1.59,-0.11703614555196065,0
2.0854166666666667,1.59,-0.11690564341850793,0
2.0875,1.59,-0.11677452124613424,0
2.089583333333333,1.59,-0.11664278086185081,0
2.091666666666667,1.59,-0.11651042410893148,0
2.09375,1.6,-0.10637745284683642,0
2.095833333333333,1.6,-0.10624386895113641,0
2.097916666666667,1.6,-0.10610967431343327,0
2.1,1.59,-0.11597487084128258,0
2.1020833333333333,1.59,-0.11583946045811644,0
2.1041666666666665,1.59,-0.11570344510316713,0
2.10625,1.6,-0.10556682673138976,0
2.1083333333333334,1.6,-0.10542960731338422,0
2.1104166666666666,1.6,-0.10529178883531656,0
2.1125,1.61,-0.09515337329884146,0
2.1145833333333335,1.61,-0.09501436272102343,0
2.1166666666666667,1.61,-0.09487475913425783,0
2.11875,1.62,-0.08473456458619302,0
2.120833333333333,1.61,-0.09459378113965339,0
2.122916666666667,1.62,-0.08445241087256034,0
2.125,1.62,-0.08431045587785496,0
2.127083333333333,1.62,-0.08416791826341928,0
2.129166666666667,1.62,-0.08402480015199908,0
2.13125,1.62,-0.08388110368112536,0
2.1333333333333333,1.63,-0.07373683100303678,0
2.1354166666666665,1.63,-0.07359198428460173,0
2.1375,1.63,-0.07344656570724031,0
2.1395833333333334,1.62,-0.08330057746684745,0
2.1416666666666666,1.63,-0.07315402177371551,0
2.14375,1.63,-0.07300690085245554,0
2.1458333333333335,1.63,-0.0728592169419222,0
2.1479166666666667,1.63,-0.07271097229513576,0
2.15,1.63,-0.07256216917920577,0
2.152083333333333,1.63,-0.07241280987525352,0
2.154166666666667,1.63,-0.07226289667833556,0
2.15625,1.63,-0.07211243189736863,0
2.158333333333333,1.63,-0.07196141785505288,0
2.160416666666667,1.63,-0.07180985688779704,0
2.1625,1.63,-0.07165775134564165,0
2.1645833333333333,1.63,-0.07150510359218473,0
2.1666666666666665,1.63,-0.07135191600450679,0
2.16875,1.63,-0.07119819097309583,0
2.1708333333333334,1.63,-0.07104393090177259,0
2.1729166666666666,1.63,-0.07088913820761637,0
2.175,1.63,-0.070733815320891,0
2.1770833333333335,1.63,-0.07057796468497157,0
2.1791666666666667,1.63,-0.07042158875627116,0
2.18125,1.63,-0.07026469000416785,0
2.183333333333333,1.62,-0.08010727091093203,0
2.185416666666667,1.63,-0.06994933397165473,0
2.1875,1.63,-0.06979088169417491,0
2.189583333333333,1.63,-0.06963191659900911,0
2.191666666666667,1.62,-0.0794724412192787,0
2.19375,1.63,-0.06931245810063934,0
2.1958333333333333,1.63,-0.06915196980120968,0
2.1979166666666665,1.63,-0.06899097889150198,0
2.2,1.62,-0.07882948795435132,0
2.2020833333333334,1.62,-0.07866749958484705,0
2.2041666666666666,1.62,-0.0785050163902632,0
2.20625,1.63,-0.06834204098999003,0
2.2083333333333335,1.62,-0.07817857601546582,0
2.2104166666666667,1.62,-0.07801462411010951,0
2.2125,1.63,-0.06785018792925285,0
2.214583333333333,1.62,-0.07768527014007298,0
2.216666666666667,1.63,-0.0675198734215273,0
2.21875,1.63,-0.06735400046428577,0
2.220833333333333,1.63,-0.06718765397066634,0
2.222916666666667,1.63,-0.0670208366545691,0
2.225,1.63,-0.06685355124141158,0
2.2270833333333333,1.63,-0.06668580046806447,0
2.2291666666666665,1.63,-0.06651758708278806,0
2.23125,1.63,-0.0663489138451686,0
2.2333333333333334,1.63,-0.06617978352605489,0
2.2354166666666666,1.63,-0.06601019890749418,0
2.2375,1.62,-0.07584016278267051,0
2.2395833333333335,1.63,-0.06566967795584405,0
2.2416666666666667,1.63,-0.06549874724228806,0
2.24375,1.63,-0.06532737346822864,0
2.245833333333333,1.63,-0.06515555947078397,0
2.247916666666667,1.63,-0.06498330809790384,0
2.25,1.63,-0.06481062220831003,0
2.252083333333333,1.63,-0.06463750467143727,0
2.254166666666667,1.63,-0.06446395836737553,0
2.25625,1.63,-0.06428998618681024,0
2.2583333333333333,1.64,-0.054115591030965124,0
2.2604166666666665,1.63,-0.0639407758115435,0
2.2625,1.63,-0.06376554345067252,0
2.2645833333333334,1.63,-0.06358989688084583,0
2.2666666666666666,1.63,-0.06341383904486818,0
2.26875,1.63,-0.06323737289580018,0
2.2708333333333335,1.64,-0.05306050139690318,0
2.2729166666666667,1.64,-0.05288322752158372,0
2.275,1.64,-0.0527055542533395,0
2.277083333333333,1.64,-0.05252748458570431,0
2.279166666666667,1.63,-0.06234902152219399,0
2.28125,1.63,-0.062170168076254584,0
2.283333333333333,1.62,-0.07199092727121005,0
2.285416666666667,1.62,-0.07181130214020998,0
2.2875,1.63,-0.06163129572617786,0
2.2895833333333333,1.63,-0.0614509110817586,0
2.2916666666666665,1.63,-0.061270151269269005,0
2.29375,1.63,-0.06108901936064573,0
2.2958333333333334,1.64,-0.05090751843739577,0
2.2979166666666666,1.64,-0.0507256515905466,0
2.3,1.64,-0.05054342192059554,0
2.3020833333333335,1.63,-0.060360832537459656,0
2.3041666666666667,1.64,-0.050177886560428014,0
2.30625,1.64,-0.04999458711811283,0
2.308333333333333,1.64,-0.04981093734840229,0
2.310416666666667,1.64,-0.04962694039841314,0
2.3125,1.64,-0.04944259942444339,0
2.314583333333333,1.64,-0.04925791759192476,0
2.316666666666667,1.64,-0.04907289807537605,0
2.31875,1.64,-0.04888754405835696,0
2.3208333333333333,1.64,-0.04870185873342163,0
2.3229166666666665,1.63,-0.05851584530207216,0
2.325,1.63,-0.058329506974714306,0
2.3270833333333334,1.63,-0.058142846970611665,0
2.3291666666666666,1.63,-0.05795586851784164,0
2.33125,1.63,-0.05776857485325139,0
2.3333333333333335,1.63,-0.05758096922241292,0
2.3354166666666667,1.63,-0.05739305487957944,0
2.3375,1.63,-0.057204835087641244,0
2.339583333333333,1.63,-0.05701631311808262,0
2.341666666666667,1.63,-0.05682749225093803,0
2.34375,1.63,-0.056638375774749415,0
2.345833333333333,1.63,-0.05644896698652315,0
2.347916666666667,1.64,-0.04625926919168771,0
2.35,1.64,-0.04606928570405117,0
2.3520833333333333,1.65,-0.035879019845759516,0
2.3541666666666665,1.65,-0.035688474947253336,0
2.35625,1.66,-0.025497654347227658,0
2.3583333333333334,1.66,-0.02530656139259095,0
2.3604166666666666,1.66,-0.0251151994384243,0
2.3625,1.67,-0.014923571847940936,0
2.3645833333333335,1.67,-0.014731681992443818,0
2.3666666666666667,1.67,-0.01453953325128255,0
2.36875,1.67,-0.014347129011812572,0
2.370833333333333,1.67,-0.014154472669353838,0
2.372916666666667,1.67,-0.013961567627151603,0
2.375,1.67,-0.013768417296335628,0
2.377083333333333,1.67,-0.013575025095879066,0
2.379166666666667,1.67,-0.013381394452557448,0
2.38125,1.66,-0.023187528800909032,0
2.3833333333333333,1.67,-0.012993431583194277,0
2.3854166666666665,1.67,-0.01279910624935738,0
2.3875,1.67,-0.012604556256984853,0
2.3895833333333334,1.68,-0.002409785071263257,0
2.3916666666666666,1.69,0.007785203835060192,0
2.39375,1.7,0.01798040698171667,0
2.3958333333333335,1.71,0.028175820880955382,0
2.3979166666666667,1.72,0.03837144203758498,0
2.4,1.71,0.02856726694901475,0
2.402083333333333,1.71,0.02876329210529406,0
2.404166666666667,1.71,0.02895951398915364,0
2.40625,1.7,0.01915592907604695,0
2.408333333333333,1.7,0.019352533834190874,0
2.410416666666667,1.69,0.009549324724604423,0
2.4125,1.68,-0.0002537017988496551,0
2.4145833333333333,1.68,-5.654928942409182e-05,0
2.4166666666666665,1.67,-0.00985922130744487,0
2.41875,1.67,-0.009661721420269283,0
2.4208333333333334,1.66,-0.019464053202244022,0
2.4229166666666666,1.65,-0.029266220234663944,0
2.425,1.64,-0.039068226105732316,0
2.4270833333333335,1.64,-0.03887007441051833,0
2.4291666666666667,1.63,-0.04867176875091406,0
2.43125,1.63,-0.04847331273559242,0
2.433333333333333,1.62,-0.05827470997996301,0
2.435416666666667,1.61,-0.06807596410613072,0
2.4375,1.61,-0.0678770787428529,0
2.439583333333333,1.61,-0.0676780575254953,0
2.441666666666667,1.6,-0.07747890409598761,0
2.44375,1.6,-0.0772796221027802,0
2.4458333333333333,1.6,-0.07708021520079966,0
2.4479166666666665,1.6,-0.07688068705140508,0
2.45,1.59,-0.086681041322343,0
2.4520833333333334,1.59,-0.08648128168770233,0
2.4541666666666666,1.59,-0.0862814118278705,0
2.45625,1.59,-0.08608143542948679,0
2.4583333333333335,1.59,-0.08588135618539608,0
2.4604166666666667,1.59,-0.08568117779460328,0
2.4625,1.59,-0.08548090396222668,0
2.464583333333333,1.58,-0.0952805383994502,0
2.466666666666667,1.58,-0.09508008482347528,0
2.46875,1.58,-0.09487954695747185,0
2.470833333333333,1.58,-0.0946789285305297,0
2.472916666666667,1.58,-0.09447823327760989,0
2.475,1.58,-0.09427746493949535,0
2.4770833333333333,1.59,-0.0840766272627404,0
2.4791666666666665,1.59,-0.08387572399962046,0
2.48125,1.59,-0.0836747589080807,0
2.4833333333333334,1.59,-0.08347373575168582,0
2.4854166666666666,1.59,-0.08327265829956776,0
2.4875,1.6,-0.07307153032637273,0
2.4895833333333335,1.59,-0.08287035561220851,0
2.4916666666666667,1.59,-0.08266913794258823,0
2.49375,1.59,-0.08246788110837691,0
2.495833333333333,1.59,-0.0822665889057358,0
2.497916666666667,1.59,-0.08206526513606727,0
2.5,1.59,-0.08186391360595835,0
2.502083333333333,1.59,-0.08166253812712343,0
2.504166666666667,1.59,-0.08146114251634622,0
2.50625,1.59,-0.08125973059542083,0
2.5083333333333333,1.58,-0.09105830619109136,0
2.5104166666666665,1.57,-0.10085687313499066,0
2.5125,1.57,-0.10065543526357984,0
2.5145833333333334,1.56,-0.11045399641808538,0
2.5166666666666666,1.56,-0.11025256044443724,0
2.51875,1.55,-0.12005113119320425,0
2.5208333333333335,1.55,-0.11984971251952914,0
2.5229166666666667,1.55,-0.11964830828306429,0
2.525,1.56,-0.10944692234790465,0
2.527083333333333,1.59,-0.07924555858252014,0
2.529166666666667,1.65,-0.01904422085968631,0
2.53125,1.74,0.07115708694358316,0
2.533333333333333,1.84,0.17135836094610646,0
2.535416666666667,1.97,0.3015595972626065,0
2.5375,2.13,0.4617607920037836,0
2.5395833333333333,2.3,0.6319619412763902,0
2.5416666666666665,2.48,0.8121630411833048,0
2.54375,2.63,0.9623640878236092,0
2.5458333333333334,2.75,1.0825650772926625,0
2.5479166666666666,2.8,1.1327660056821802,0
2.55,2.79,1.1229668690803178,0
2.5520833333333335,2.73,1.0631676635717466,0
2.5541666666666667,2.63,0.9633683852377422,0
2.55625,2.49,0.8235690301562638,0
2.558333333333333,2.34,0.6737695944020361,0
2.560416666666667,2.17,0.503970074046641,0
2.5625,2.02,0.35417046515860107,0
2.564583333333333,1.88,0.2143707638034691,0
2.566666666666667,1.77,0.10457096604391847,0
2.56875,1.69,0.02477106793983412,0
2.5708333333333333,1.62,-0.04502893445159481,0
2.5729166666666665,1.59,-0.07482904507578245,0
2.575,1.56,-0.10462926788065097,0
2.5770833333333334,1.55,-0.1144296068165353,0
2.5791666666666666,1.55,-0.11423006583608472,0
2.58125,1.54,-0.12403064889416676,0
2.5833333333333335,1.55,-0.1138313599477686,0
2.5854166666666667,1.55,-0.1136322029558959,0
2.5875,1.56,-0.10343318187947248,0
2.589583333333333,1.56,-0.10323430068123829,0
2.591666666666667,1.56,-0.10303556332564365,0
2.59375,1.56,-0.10283697377874532,0
2.595833333333333,1.56,-0.10263853600810122,0
2.597916666666667,1.56,-0.1024402539826631,0
2.6,1.56,-0.1022421316726686,0
2.6020833333333333,1.56,-0.10204417304953423,0
2.6041666666666665,1.56,-0.10184638208574495,0
2.60625,1.56,-0.10164876275474319,0
2.6083333333333334,1.56,-0.10145131903081647,0
2.6104166666666666,1.57,-0.09125405488898577,0
2.6125,1.57,-0.09105697430489218,0
2.6145833333333335,1.57,-0.0908600812546829,0
2.6166666666666667,1.58,-0.08066337971489593,0
2.61875,1.58,-0.08046687366234266,0
2.620833333333333,1.59,-0.07027056707399118,0
2.622916666666667,1.59,-0.07007446392684691,0
2.625,1.59,-0.0698785681978343,0
2.627083333333333,1.59,-0.0696828838636769,0
2.629166666666667,1.59,-0.0694874149007763,0
2.63125,1.59,-0.06929216528509038,0
2.6333333333333333,1.6,-0.05909713899200959,0
2.6354166666666665,1.6,-0.05890233999623247,0
2.6375,1.6,-0.058707772271639994,0
2.6395833333333334,1.6,-0.05851343979116974,0
2.6416666666666666,1.6,-0.0583193465266902,0
2.64375,1.61,-0.04812549644887261,0
2.6458333333333335,1.61,-0.04793189352706234,0
2.6479166666666667,1.61,-0.04773854172914925,0
2.65,1.62,-0.03754544502143634,0
2.652083333333333,1.62,-0.03735260736850878,0
2.654166666666667,1.63,-0.027160032733102954,0
2.65625,1.63,-0.02696772507597337,0
2.658333333333333,1.63,-0.02677568835575926,0
2.660416666666667,1.63,-0.026583926528850006,0
2.6625,1.64,-0.016392443549249083,0
2.6645833333333333,1.63,-0.026201243368438147,0
2.6666666666666665,1.64,-0.016010329935239397,0
2.66875,1.64,-0.015819707195676536,0
2.6708333333333334,1.65,-0.005629379092836877,0
2.6729166666666666,1.65,-0.005439349566731852,0
2.675,1.66,0.004750377445842715,0
2.6770833333333335,1.66,0.004939798011447772,0
2.6791666666666667,1.66,0.005128908200143889,0
2.68125,1.67,0.015317704085633151,0
2.683333333333333,1.67,0.015506181745404038,0
2.685416666666667,1.68,0.025694337260878986,0
2.6875,1.68,0.02588216671755961,0
2.689583333333333,1.69,0.03606966620517267,0
2.691666666666667,1.69,0.03625683181781744,0
2.69375,1.69,0.03644365965411306,0
2.6958333333333333,1.7,0.04663014581734777,0
2.6979166666666665,1.7,0.046816286415629224,0
2.7,1.71,0.057002077562034605,0
2.7020833333333334,1.72,0.06718751537476218,0
2.7041666666666666,1.73,0.07737259597728437,0
2.70625,1.73,0.07755731549850102,0
2.7083333333333335,1.75,0.09774167007289386,0
2.7104166666666667,1.76,0.10792565584068119,0
2.7125,1.77,0.118109268947974,0
2.714583333333333,1.78,0.12829250554693064,0
2.716666666666667,1.78,0.12847536179591562,0
2.71875,1.79,0.13865783385965705,0
2.720833333333333,1.8,0.1488399179094054,0
2.722916666666667,1.81,0.15902161012309501,0
2.725,1.82,0.16920290668550345,0
2.7270833333333333,1.83,0.17938380378841212,0
2.7291666666666665,1.84,0.18956429763076793,0
2.73125,1.85,0.19974438441884784,0
2.7333333333333334,1.86,0.20992406036642144,0
2.7354166666666666,1.86,0.2101033216949149,0
2.7375,1.87,0.2202821646335748,0
2.7395833333333335,1.88,0.23046058541963402,0
2.7416666666666667,1.88,0.2306385802984794,0
2.74375,1.89,0.24081614552381694,0
2.745833333333333,1.89,0.24099327735784085,0
2.747916666666667,1.9,0.25116997207140124,0
2.75,1.91,0.261346225944173,0
2.752083333333333,1.91,0.2615220352648263,0
2.754166666666667,1.92,0.2716973963311969,0
2.75625,1.91,0.2618723054504575,0
2.7583333333333333,1.92,0.2720467589392892,0
2.7604166666666665,1.92,0.27222075312405314,0
2.7625,1.92,0.27239428434096313,0
2.7645833333333334,1.92,0.27256734893625856,0
2.7666666666666666,1.92,0.2727399432663784,0
2.76875,1.92,0.27291206369813503,0
2.7708333333333335,1.92,0.27308370660888925,0
2.7729166666666667,1.92,0.2732548683867253,0
2.775,1.91,0.2634255454306271,0
2.777083333333333,1.91,0.2635957341506544,0
2.779166666666667,1.9,0.25376543096811977,0
2.78125,1.89,0.2439346323157665,0
2.783333333333333,1.88,0.23410333463794553,0
2.785416666666667,1.87,0.22427153439079134,0
2.7875,1.85,0.20443922804239983,0
2.7895833333333333,1.84,0.19460641207300786,0
2.7916666666666665,1.83,0.18477308297517098,0
2.79375,1.81,0.1649392372539411,0
2.7958333333333334,1.8,0.15510487142704557,0
2.7979166666666666,1.79,0.145269982025065,0
2.8,1.77,0.1254345655916128,0
2.8020833333333335,1.75,0.10559861868351347,0
2.8041666666666667,1.74,0.09576213787097973,0
2.80625,1.73,0.08592511973779257,0
2.808333333333333,1.71,0.06608756088147838,0
2.810416666666667,1.7,0.056249457913488454,0
2.8125,1.68,0.03641080745937865,0
2.814583333333333,1.67,0.02657160615898599,0
2.816666666666667,1.66,0.016731850666607817,0
2.81875,1.65,0.006891537651179003,0
2.8208333333333333,1.64,-0.0029493362035512005,0
2.8229166666666665,1.62,-0.02279077419884118,0
2.825,1.61,-0.0326327796207819,0
2.8270833333333334,1.6,-0.04247535574011896,0
2.8291666666666666,1.59,-0.052318505812078114,0
2.83125,1.58,-0.06216223307618862,0
2.8333333333333335,1.57,-0.0720065407561101,0
2.8354166666666667,1.56,-0.08185143205945741,0
2.8375,1.55,-0.09169691017762568,0
2.839583333333333,1.54,-0.10154297828561715,0
2.841666666666667,1.54,-0.10138963954186964,0
2.84375,1.54,-0.10123689708808448,0
2.845833333333333,1.53,-0.11108475404905699,0
2.847916666666667,1.53,-0.11093321353250543,0
2.85,1.53,-0.11078227862890067,0
2.8520833333333333,1.52,-0.12063195241129732,0
2.8541666666666665,1.52,-0.12048223793516627,0
2.85625,1.52,-0.1203331382382278,0
2.8583333333333334,1.52,-0.1201846563402856,0
2.8604166666666666,1.52,-0.12003679524306168,0
2.8625,1.52,-0.11988955793003203,0
2.8645833333333335,1.51,-0.12974294736626427,0
2.8666666666666667,1.51,-0.1295969664982563,0
2.86875,1.5,-0.13945161825377644,0
2.870833333333333,1.5,-0.13930690554170508,0
2.872916666666667,1.5,-0.13916283125187498,0
2.875,1.5,-0.13901939825491397,0
2.877083333333333,1.5,-0.138876609402089,0
2.879166666666667,1.5,-0.13873446752515123,0
2.88125,1.5,-0.1385929754361832,0
2.8833333333333333,1.49,-0.14845213592744763,0
2.8854166666666665,1.49,-0.14831195177123543,0
2.8875,1.49,-0.14817242571971584,0
2.8895833333333334,1.49,-0.1480335605047886,0
2.8916666666666666,1.48,-0.15789535883793707,0
2.89375,1.49,-0.14775782341008326,0
2.8958333333333335,1.49,-0.1476209568914438,0
2.8979166666666667,1.49,-0.1474847619313891,0
2.9,1.5,-0.13734924115830197,0
2.902083333333333,1.5,-0.137214397179438,0
2.904166666666667,1.5,-0.13708023258078933,0
2.90625,1.5,-0.1369467499269492,0
2.908333333333333,1.5,-0.13681395176097766,0
2.910416666666667,1.5,-0.1366818406042692,0
2.9125,1.5,-0.1365504189564219,0
2.9145833333333333,1.5,-0.1364196892951077,0
2.9166666666666665,1.51,-0.12628965407594492,0
2.91875,1.51,-0.12616031573237302,0
2.9208333333333334,1.51,-0.12603167667552934,0
2.9229166666666666,1.51,-0.1259037392941267,0
2.925,1.5,-0.13577650595433308,0
2.9270833333333335,1.51,-0.12564997899965252,0
2.9291666666666667,1.51,-0.12552416075080824,0
2.93125,1.51,-0.12539905350562847,0
2.933333333333333,1.52,-0.11527465953893387,0
2.935416666666667,1.52,-0.11515098110242519,0
2.9375,1.52,-0.11502802042457295,0
2.939583333333333,1.52,-0.1149057797105094,0
2.941666666666667,1.52,-0.11478426114192271,0
2.94375,1.52,-0.11466346687695388,0
2.9458333333333333,1.52,-0.11454339905009545,0
2.9479166666666665,1.52,-0.11442405977209143,0
2.95,1.52,-0.11430545112983925,0
2.9520833333333334,1.52,-0.11418757518629498,0
2.9541666666666666,1.52,-0.11407043398037973,0
2.95625,1.52,-0.11395402952688764,0
2.9583333333333335,1.52,-0.11383836381639661,0
2.9604166666666667,1.52,-0.11372343881518054,0
2.9625,1.51,-0.12360925646512401,0
2.964583333333333,1.51,-0.12349581868363962,0
2.966666666666667,1.51,-0.12338312736358883,0
2.96875,1.51,-0.12327118437320274,0
2.970833333333333,1.5,-0.13315999155600472,0
2.972916666666667,1.5,-0.13304955073073566,0
2.975,1.5,-0.13293986369128058,0
2.9770833333333333,1.5,-0.13283093220659797,0
2.9791666666666665,1.5,-0.1327227580206516,0
2.98125,1.5,-0.1326153428523437,0
2.9833333333333334,1.5,-0.13250868839545116,0
2.9854166666666666,1.51,-0.1224027963185634,0
2.9875,1.51,-0.12229766826502202,0
2.9895833333333335,1.51,-0.122193305852864,0
2.9916666666666667,1.51,-0.12208971067476633,0
2.99375,1.51,-0.12198688429799269,0
2.995833333333333,1.5,-0.13188482826434278,0
2.997916666666667,1.51,-0.12178354409010278,0
3.0,1.5,-0.1316830332659988,0
3.002083333333333,1.5,-0.1315832972571517,0
3.004166666666667,1.5,-0.13148433750303584,0
3.00625,1.5,-0.13138615541743812,0
3.0083333333333333,1.5,-0.13128875238842105,0
3.0104166666666665,1.5,-0.1311921297782868,0
3.0125,1.5,-0.1310962889235442,0
3.0145833333333334,1.5,-0.13100123113487733,0
3.0166666666666666,1.5,-0.13090695769711655,0
3.01875,1.5,-0.13081346986921222,0
3.0208333333333335,1.5,-0.13072076888420978,0
3.0229166666666667,1.5,-0.13062885594922843,0
3.025,1.51,-0.12053773224544008,0
3.027083333333333,1.51,-0.1204473989280511,0
3.029166666666667,1.51,-0.12035785712628926,0
3.03125,1.52,-0.11026910794338982,0
3.033333333333333,1.52,-0.11018115245658333,0
3.035416666666667,1.52,-0.11009399171708663,0
3.0375,1.52,-0.1100076267500956,0
3.0395833333333333,1.52,-0.10992205855477981,0
3.0416666666666665,1.52,-0.10983728810428159,0
3.04375,1.52,-0.10975331634571497,0
3.0458333333333334,1.52,-0.10967014420016827,0
3.0479166666666666,1.52,-0.10958777256270948,0
3.05,1.52,-0.1095062023023922,0
3.0520833333333335,1.52,-0.1094254342622643,0
3.0541666666666667,1.52,-0.10934546925937882,0
3.05625,1.52,-0.10926630808480677,0
3.058333333333333,1.52,-0.10918795150365225,0
3.060416666666667,1.52,-0.10911040025507021,0
3.0625,1.52,-0.10903365505228627,0
3.064583333333333,1.52,-0.1089577165826183,0
3.066666666666667,1.52,-0.10888258550749996,0
3.06875,1.52,-0.10880826246250715,0
3.0708333333333333,1.52,-0.10873474805738612,0
3.0729166666666665,1.53,-0.09866204287608227,0
3.075,1.53,-0.09859014747677355,0
3.0770833333333334,1.54,-0.0885190623919054,0
3.0791666666666666,1.54,-0.08844878812822715,0
3.08125,1.54,-0.08837932516683156,0
3.0833333333333335,1.54,-0.08831067396319453,0
3.0854166666666667,1.54,-0.08824283494721794,0
3.0875,1.54,-0.0881758085232743,0
3.089583333333333,1.54,-0.0881095950702531,0
3.091666666666667,1.54,-0.08804419494160906,0
3.09375,1.54,-0.08797960846541322,0
3.095833333333333,1.54,-0.08791583594440455,0
3.097916666666667,1.54,-0.0878528776560446,0
3.1,1.54,-0.08779073385257417,0
3.1020833333333333,1.54,-0.0877294047610716,0
3.1041666666666665,1.54,-0.08766889058351349,0
3.10625,1.54,-0.08760919149683688,0
3.1083333333333334,1.54,-0.08755030765300348,0
3.1104166666666666,1.54,-0.08749223917906435,0
3.1125,1.55,-0.07743498617722845,0
3.1145833333333335,1.55,-0.07737854872493213,0
3.1166666666666667,1.55,-0.07732292687491144,0
3.11875,1.55,-0.07726812065527268,0
3.120833333333333,1.55,-0.07721413006956884,0
3.122916666666667,1.55,-0.07716095509687561,0
3.125,1.56,-0.06710859569187021,0
3.127083333333333,1.56,-0.06705705178491102,0
3.129166666666667,1.57,-0.05700632328211902,0
3.13125,1.57,-0.056956410065462384,0
3.1333333333333333,1.58,-0.04690731199284291,0
3.1354166666666665,1.59,-0.03685902889818231,0
3.1375,1.59,-0.03681156059151042,0
3.1395833333333334,1.6,-0.026764906859056234,0
3.1416666666666666,1.61,-0.016719067463341383,0
3.14375,1.61,-0.01667404214327052,0
3.1458333333333335,1.62,-0.00662983061422788,0
3.1479166666666667,1.62,-0.0065864325681734975,0
3.15,1.62,-0.006543847673740499,0
3.152083333333333,1.62,-0.006502075576336516,0
3.154166666666667,1.62,-0.00646111589824426,0
3.15625,1.61,-0.01642096823872384,0
3.158333333333333,1.61,-0.01638163217411684,0
3.160416666666667,1.61,-0.016343107257951253,0
3.1625,1.61,-0.0163053930210484,0
3.1645833333333333,1.62,-0.006268488971631014,0
3.1666666666666665,1.63,0.0037676054045662766,0
3.16875,1.64,0.01380289064418655,0
3.1708333333333334,1.64,0.013837367306136855,0
3.1729166666666666,1.65,0.02387103597147658,0
3.175,1.66,0.03390389724330187,0
3.1770833333333335,1.67,0.043935951746628454,0
3.1791666666666667,1.67,0.0439672001282739,0
3.18125,1.67,0.043997643056739755,0
3.183333333333333,1.67,0.044027281222092096,0
3.185416666666667,1.67,0.04405611533584086,0
3.1875,1.66,0.03408414613081859,0
3.189583333333333,1.66,0.03411137436105545,0
3.191666666666667,1.65,0.024137800801652703,0
3.19375,1.65,0.024163426248656694,0
3.1958333333333333,1.64,0.014188251518932743,0
3.1979166666666665,1.64,0.014212277450038266,0
3.2,1.63,0.004235504900093862,0
3.2020833333333334,1.62,-0.0057420652523464955,0
3.2041666666666666,1.61,-0.01572043210842665,0
3.20625,1.6,-0.025699594749120577,0
3.2083333333333335,1.59,-0.03567955223536554,0
3.2104166666666667,1.59,-0.03566030360819647,0
3.2125,1.58,-0.045641847888882515,0
3.214583333333333,1.58,-0.045624184079061963,0
3.216666666666667,1.57,-0.055607311160878435,0
3.21875,1.57,-0.05559122809711864,0
3.220833333333333,1.56,-0.06557593383135085,0
3.222916666666667,1.56,-0.06556142728806491,0
3.225,1.56,-0.06554770737281208,0
3.2270833333333333,1.55,-0.07553477297234616,0
3.2291666666666665,1.55,-0.07552262295476453,0
3.23125,1.55,-0.07551125616965332,0
3.2333333333333334,1.55,-0.0755006714482293,0
3.2354166666666666,1.55,-0.07549086760348424,0
3.2375,1.55,-0.07548184343033033,0
3.2395833333333335,1.55,-0.07547359770574587,0
3.2416666666666667,1.55,-0.07546612918892143,0
3.24375,1.55,-0.07545943662140658,0
3.245833333333333,1.55,-0.07545351872725765,0
3.247916666666667,1.56,-0.06544837421318561,0
3.25,1.56,-0.0654440017687056,0
3.252083333333333,1.55,-0.07544040006628586,0
3.254166666666667,1.55,-0.07543756776149659,0
3.25625,1.55,-0.07543550349316246,0
3.2583333333333333,1.55,-0.07543420588351243,0
3.2604166666666665,1.56,-0.06543367353833124,0
3.2625,1.55,-0.07543390504711257,0
3.2645833333333334,1.56,-0.06543489898320867,0
3.2666666666666666,1.55,-0.0754366539039855,0
3.26875,1.55,-0.07543916835097392,0
3.2708333333333335,1.55,-0.07544244085002527,0
3.2729166666666667,1.56,-0.06544646991146547,0
3.275,1.56,-0.06545125403024929,0
3.277083333333333,1.56,-0.0654567916861123,0
3.279166666666667,1.56,-0.06546308134372539,0
3.28125,1.57,-0.05547012145285007,0
3.283333333333333,1.57,-0.055477910448494636,0
3.285416666666667,1.57,-0.05548644675106946,0
3.2875,1.57,-0.055495728766542705,0
3.2895833333333333,1.57,-0.05550575488659569,0
3.2916666666666665,1.57,-0.05551652348877875,0
3.29375,1.57,-0.05552803293666769,0
3.2958333333333334,1.56,-0.06554028158001911,0
3.2979166666666666,1.56,-0.06555326775492555,0
3.3,1.55,-0.0755669897839718,0
3.3020833333333335,1.55,-0.07558144597638923,0
3.3041666666666667,1.54,-0.08559663462821415,0
3.30625,1.53,-0.09561255402244212,0
3.308333333333333,1.53,-0.09562920242918305,0
3.310416666666667,1.53,-0.09564657810581742,0
3.3125,1.53,-0.09566467929714963,0
3.314583333333333,1.54,-0.08568350423556409,0
3.316666666666667,1.57,-0.05570305114117988,0
3.31875,1.63,0.004276681777993882,0
3.3208333333333333,1.72,0.09425569632590419,0
3.3229166666666665,1.83,0.20423399431829975,0
3.325,1.96,0.33421157758257786,0
3.3270833333333334,2.13,0.5041884479576333,0
3.3291666666666666,2.3,0.6741646072937036,0
3.33125,2.47,0.8441400574522175,0
3.3333333333333335,2.69,1.0641148003056409,0
3.3354166666666667,2.59,0.9640888377373281,0
3.3375,2.44,0.8140621716413707,0
3.339583333333333,2.29,0.6640348039224441,0
3.341666666666667,2.13,0.50400673649566,0
3.34375,1.98,0.3539779712864175,0
3.345833333333333,1.86,0.23394851023025326,0
3.347916666666667,1.76,0.13391835527269627,0
3.35,1.69,0.06388750836912031,0
3.3520833333333333,1.64,0.013855971484597503,0
3.3541666666666665,1.6,-0.026176253406247296,0
3.35625,1.58,-0.04620916431938281,0
3.3583333333333334,1.56,-0.06624275926151278,0
3.3604166666666666,1.56,-0.06627703623022291,0
3.3625,1.56,-0.06631199321412284,0
3.3645833333333335,1.56,-0.06634762819298931,0
3.3666666666666667,1.56,-0.0663839391379074,0
3.36875,1.56,-0.06642092401141332,0
3.370833333333333,1.57,-0.0564585807676351,0
3.372916666666667,1.56,-0.06649690735243342,0
3.375,1.57,-0.05653590170353957,0
3.377083333333333,1.57,-0.056575561750695086,0
3.379166666666667,1.56,-0.06661588541578972,0
3.38125,1.56,-0.06665687061299948,0
3.3833333333333333,1.56,-0.06669851524892226,0
3.3854166666666665,1.56,-0.0667408172227123,0
3.3875,1.56,-0.06678377442621602,0
3.3895833333333334,1.56,-0.06682738474410657,0
3.3916666666666666,1.56,-0.06687164605401733,0
3.39375,1.56,-0.06691655622667513,0
3.3958333333333335,1.56,-0.06696211312603152,0
3.3979166666666667,1.56,-0.06700831460939469,0
3.4,1.57,-0.057055158527559685,0
3.402083333333333,1.57,-0.05710264272493813,0
3.404166666666667,1.57,-0.0571507650396874,0
3.40625,1.57,-0.057199523303839525,0
3.408333333333333,1.56,-0.06724891534342771,0
3.410416666666667,1.57,-0.05729893897861389,0
3.4125,1.58,-0.04734959202381416,0
3.4145833333333333,1.58,-0.04740087228782312,0
3.4166666666666665,1.58,-0.047452777573937406,0
3.41875,1.59,-0.037505305680078836,0
3.4208333333333334,1.59,-0.0375584543989163,0
3.4229166666666666,1.59,-0.03761222151798841,0
3.425,1.6,-0.027666604819824095,0
3.4270833333333335,1.6,-0.027721602082061862,0
3.4291666666666667,1.6,-0.027777211077565672,0
3.43125,1.61,-0.017833429574543414,0
3.433333333333333,1.61,-0.017890255336662466,0
3.435416666666667,1.61,-0.017947686123165312,0
3.4375,1.62,-0.008005719688984234,0
3.439583333333333,1.62,-0.008064353784854168,0
3.441666666666667,1.63,0.00187641384257339,0
3.44375,1.63,0.0018165854506187696,0
3.4458333333333333,1.63,0.0017561633004644951,0
3.4479166666666665,1.63,0.0016951496570454753,0
3.45,1.63,0.0016335467889413676,0
3.4520833333333334,1.64,0.011571356968269584,0
3.4541666666666666,1.65,0.021508582470579473,0
3.45625,1.65,0.02144522557474636,0
3.4583333333333335,1.66,0.03138128856286806,0
3.4604166666666667,1.66,0.03131677372016173,0
3.4625,1.67,0.041251683334861455,0
3.464583333333333,1.67,0.04118601969811771,0
3.466666666666667,1.67,0.04111978510389998,0
3.46875,1.68,0.051052981848897915,0
3.470833333333333,1.68,0.05098561223242491,0
3.472916666666667,1.69,0.060917678556321735,0
3.475,1.69,0.0608491831248617,0
3.4770833333333333,1.69,0.060780128244656895,0
3.4791666666666665,1.7,0.07071051622456599,0
3.48125,1.71,0.0806403493756042,0
3.4833333333333334,1.71,0.08056963001085321,0
3.4854166666666666,1.72,0.09049836044537504,0
3.4875,1.72,0.09042654299612485,0
3.4895833333333335,1.73,0.10035417998186323,0
3.4916666666666667,1.74,0.11028127372307281,0
3.49375,1.74,0.1102078265418754,0
3.495833333333333,1.75,0.12013384076195033,0
3.497916666666667,1.76,0.13005931870845272,0
3.5,1.77,0.1399842627079358,0
3.502083333333333,1.77,0.13990867508827387,0
3.504166666666667,1.78,0.14983255817858504,0
3.50625,1.79,0.1597559143091553,0
3.5083333333333333,1.8,0.1696787458113657,0
3.5104166666666665,1.81,0.17960105501762083,0
3.5125,1.82,0.18952284426127772,0
3.5145833333333334,1.83,0.19944411587657568,0
3.5166666666666666,1.84,0.20936487219856903,0
3.51875,1.85,0.21928511556306066,0
3.5208333333333335,1.86,0.2292048483065364,0
3.5229166666666667,1.87,0.23912407276610043,0
3.525,1.88,0.24904279127941267,0
3.527083333333333,1.88,0.2489610061846299,0
3.529166666666667,1.89,0.25887871982034516,0
3.53125,1.9,0.26879593452552986,0
3.533333333333333,1.91,0.27871265263947653,0
3.535416666666667,1.92,0.2886288765017445,0
3.5375,1.93,0.29854460845210545,0
3.5395833333333333,1.93,0.29845985083049065,0
3.5416666666666665,1.95,0.31837460597693823,0
3.54375,1.95,0.3182888762315439,0
3.5458333333333334,1.95,0.3182026639344134,0
3.5479166666666666,1.95,0.318115971425615,0
3.55,1.95,0.3180288010451343,0
3.5520833333333335,1.95,0.31794115513282983,0
3.5541666666666667,1.94,0.30785303602839037,0
3.55625,1.94,0.3077644460712934,0
3.558333333333333,1.93,0.297675387600765,0
3.560416666666667,1.92,0.2875858629557425,0
3.5625,1.91,0.27749587447483404,0
3.564583333333333,1.9,0.26740542449628324,0
3.566666666666667,1.89,0.2573145153579346,0
3.56875,1.88,0.2472231493971988,0
3.5708333333333333,1.87,0.2371313289510202,0
3.5729166666666665,1.86,0.22703905635584556,0
3.575,1.84,0.20694633394759515,0
3.5770833333333334,1.83,0.19685316406163278,0
3.5791666666666666,1.81,0.17675954903273666,0
3.58125,1.79,0.15666549119507592,0
3.5833333333333335,1.78,0.14657099288218245,0
3.5854166666666667,1.76,0.12647605642692838,0
3.5875,1.75,0.11638068416150116,0
3.589583333333333,1.74,0.1062848784173806,0
3.591666666666667,1.73,0.09618864152531764,0
3.59375,1.72,0.08609197581531225,0
3.595833333333333,1.7,0.0659948836165947,0
3.597916666666667,1.69,0.05589736725760844,0
3.6,1.68,0.045799429065991076,0
3.6020833333333333,1.66,0.025701071368558426,0
3.6041666666666665,1.64,0.005602296491288017,0
3.60625,1.63,-0.004496893240696215,0
3.6083333333333334,1.63,-0.004596495503138787,0
3.6104166666666666,1.62,-0.014696507972665057,0
3.6125,1.61,-0.024796928326794893,0
3.6145833333333335,1.6,-0.03489775424395375,0
3.6166666666666667,1.59,-0.04499898340348532,0
3.61875,1.58,-0.05510061348566081,0
3.620833333333333,1.58,-0.05520264217169121,0
3.622916666666667,1.57,-0.06530506714373654,0
3.625,1.56,-0.07540788608491533,0
3.627083333333333,1.56,-0.07551109667931255,0
3.629166666666667,1.55,-0.08561469661198817,0
3.63125,1.54,-0.09571868356898194,0
3.6333333333333333,1.54,-0.09582305523732368,0
3.6354166666666665,1.54,-0.09592780930503961,0
3.6375,1.54,-0.09603294346115968,0
3.6395833333333334,1.53,-0.10613845539572334,0
3.6416666666666666,1.53,-0.10624434279978537,0
3.64375,1.53,-0.10635060336542004,0
3.6458333333333335,1.53,-0.10645723478572622,0
3.6479166666666667,1.53,-0.10656423475483198,0
3.65,1.53,-0.10667160096789846,0
3.652083333333333,1.54,-0.09677933112112444,0
3.654166666666667,1.54,-0.09688742291175087,0
3.65625,1.54,-0.09699587403806578,0
3.658333333333333,1.54,-0.09710468219940752,0
3.660416666666667,1.54,-0.09721384509616907,0
3.6625,1.54,-0.09732336042980122,0
3.6645833333333333,1.53,-0.10743322590281632,0
3.6666666666666665,1.52,-0.11754343921879135,0
3.66875,1.52,-0.1176539980823709,0
3.6708333333333334,1.52,-0.11776490019926891,0
3.6729166666666666,1.52,-0.11787614327627252,0
3.675,1.52,-0.11798772502124494,0
3.6770833333333335,1.52,-0.11809964314312904,0
3.6791666666666667,1.52,-0.11821189535195165,0
3.68125,1.52,-0.11832447935882612,0
3.683333333333333,1.52,-0.11843739287595609,0
3.685416666666667,1.52,-0.11855063361663937,0
3.6875,1.53,-0.10866419929527221,0
3.689583333333333,1.53,-0.10877808762735275,0
3.691666666666667,1.53,-0.10889229632948705,0
3.69375,1.53,-0.10900682311939353,0
3.6958333333333333,1.53,-0.10912166571590629,0
3.6979166666666665,1.53,-0.10923682183897987,0
3.7,1.53,-0.10935228920969517,0
3.7020833333333334,1.53,-0.10946806555026448,0
3.7041666666666666,1.53,-0.10958414858403592,0
3.70625,1.53,-0.10970053603549926,0
3.7083333333333335,1.54,-0.09981722563029177,0
3.7104166666666667,1.54,-0.09993421509520578,0
3.7125,1.54,-0.10005150215819522,0
3.714583333333333,1.53,-0.1101690845483844,0
3.716666666666667,1.53,-0.11028695999607449,0
3.71875,1.53,-0.11040512623275064,0
3.720833333333333,1.54,-0.10052358099109043,0
3.722916666666667,1.54,-0.10064232200497253,0
3.725,1.55,-0.09076134700948583,0
3.7270833333333333,1.55,-0.09088065374093907,0
3.7291666666666665,1.56,-0.08100023993686992,0
3.73125,1.56,-0.08112010333605463,0
3.7333333333333334,1.56,-0.08124024167851879,0
3.7354166666666666,1.56,-0.081360652705548,0
3.7375,1.57,-0.07148133415969893,0
3.7395833333333335,1.57,-0.071602283784811,0
3.7416666666666667,1.57,-0.07172349932601933,0
3.74375,1.57,-0.07184497852976782,0
3.745833333333333,1.57,-0.07196671914382329,0
3.747916666666667,1.57,-0.07208871891728942,0
3.75,1.57,-0.07221097560062119,0
3.752083333333333,1.57,-0.07233348694563933,0
3.754166666666667,1.57,-0.07245625070554644,0
3.75625,1.57,-0.07257926463494198,0
3.7583333333333333,1.57,-0.07270252648983919,0
3.7604166666666665,1.57,-0.07282603402768187,0
3.7625,1.56,-0.08294978500736232,0
3.7645833333333334,1.57,-0.07307377718923887,0
3.7666666666666666,1.57,-0.07319800833515416,0
3.76875,1.57,-0.07332247620845447,0
3.7708333333333335,1.57,-0.07344717857401031,0
3.7729166666666667,1.57,-0.07357211319823671,0
3.775,1.57,-0.07369727784911348,0
3.777083333333333,1.57,-0.07382267029620664,0
3.779166666666667,1.56,-0.08394828831069033,0
3.78125,1.56,-0.0840741296653702,0
3.783333333333333,1.56,-0.08420019213470561,0
3.785416666666667,1.56,-0.08432647349483277,0
3.7875,1.56,-0.08445297152358956,0
3.7895833333333333,1.56,-0.08457968400054065,0
3.7916666666666665,1.56,-0.08470660870700311,0
3.79375,1.56,-0.08483374342607299,0
3.7958333333333334,1.56,-0.08496108594265112,0
3.7979166666666666,1.56,-0.08508863404347126,0
3.8,1.56,-0.0852163855171281,0
3.8020833333333335,1.56,-0.08534433815410611,0
3.8041666666666667,1.56,-0.08547248974680864,0
3.80625,1.56,-0.08560083808958784,0
3.808333333333333,1.56,-0.08572938097877525,0
3.810416666666667,1.56,-0.08585811621271267,0
3.8125,1.56,-0.08598704159178408,0
3.814583333333333,1.56,-0.08611615491844889,0
3.816666666666667,1.56,-0.08624545399727468,0
3.81875,1.57,-0.07637493663497087,0
3.8208333333333333,1.57,-0.07650460064042294,0
3.8229166666666665,1.57,-0.07663444382472853,0
3.825,1.56,-0.08676446400123308,0
3.8270833333333334,1.57,-0.07689465898556387,0
3.8291666666666666,1.57,-0.07702502659566818,0
3.83125,1.57,-0.07715556465185061,0
3.8333333333333335,1.57,-0.07728627097681151,0
3.8354166666666667,1.57,-0.07741714339568487,0
3.8375,1.57,-0.07754817973607692,0
3.839583333333333,1.57,-0.07767937782810652,0
3.841666666666667,1.57,-0.07781073550444481,0
3.84375,1.57,-0.07794225060035684,0
3.845833333333333,1.57,-0.07807392095374331,0
3.847916666666667,1.57,-0.07820574440518116,0
3.85,1.57,-0.07833771879796718,0
3.8520833333333333,1.57,-0.07846984197816023,0
3.8541666666666665,1.57,-0.07860211179462616,0
3.85625,1.57,-0.07873452609908124,0
3.8583333333333334,1.57,-0.07886708274613746,0
3.8604166666666666,1.57,-0.07899977959334815,0
3.8625,1.57,-0.07913261450125286,0
3.8645833333333335,1.57,-0.07926558533342482,0
3.8666666666666667,1.57,-0.07939868995651744,0
3.86875,1.57,-0.07953192624031137,0
3.870833333333333,1.57,-0.07966529205776293,0
3.872916666666667,1.57,-0.07979878528505334,0
3.875,1.57,-0.07993240380163615,0
3.877083333333333,1.57,-0.08006614549028668,0
3.879166666666667,1.57,-0.08020000823715198,0
3.88125,1.57,-0.08033398993180049,0
3.8833333333333333,1.58,-0.07046808846727468,0
3.8854166666666665,1.58,-0.07060230174014066,0
3.8875,1.58,-0.07073662765054017,0
3.8895833333333334,1.58,-0.07087106410224303,0
3.8916666666666666,1.58,-0.07100560900269931,0
3.89375,1.58,-0.07114026026309224,0
3.8958333333333335,1.57,-0.08127501579839087,0
3.8979166666666667,1.57,-0.08140987352740407,0
3.9,1.57,-0.08154483137283418,0
3.902083333333333,1.58,-0.07167988726133181,0
3.904166666666667,1.58,-0.0718150391235499,0
3.90625,1.58,-0.07195028489419936,0
3.908333333333333,1.58,-0.0720856225121049,0
3.910416666666667,1.59,-0.062221049920259675,0
3.9125,1.6,-0.05235656506588191,0
3.9145833333333333,1.61,-0.04249216590047171,0
3.9166666666666665,1.61,-0.04262785037986567,0
3.91875,1.62,-0.032763616464294154,0
3.9208333333333334,1.64,-0.012899462118438745,0
3.9229166666666666,1.64,-0.013035385311488734,0
3.925,1.65,-0.0031713840172002405,0
3.9270833333333335,1.65,-0.0033074562139530778,0
3.9291666666666667,1.65,-0.0034435998848079685,0
3.93125,1.65,-0.003579813017564701,0
3.933333333333333,1.65,-0.0037160936048214466,0
3.935416666666667,1.65,-0.003852439644031598,0
3.9375,1.65,-0.003988849137564476,0
3.939583333333333,1.65,-0.00412532009276298,0
3.941666666666667,1.65,-0.0042618505220014535,0
3.94375,1.66,0.005601561557254345,0
3.9458333333333333,1.66,0.005464918122389167,0
3.9479166666666665,1.67,0.015328221145578642,0
3.95,1.67,0.015191472593730465,0
3.9520833333333334,1.68,0.025054674428426363,0
3.9541666666666666,1.68,0.024917828605864195,0
3.95625,1.69,0.034780937076798024,0
3.9583333333333335,1.71,0.05464400178647849,0
3.9604166666666667,1.71,0.05450702467459373,0
3.9625,1.7,0.04437000767521085,0
3.964583333333333,1.69,0.03423295271671786,0
3.966666666666667,1.69,0.034095861721762946,0
3.96875,1.68,0.02395873660719676,0
3.970833333333333,1.67,0.013821579284014021,0
3.972916666666667,1.66,0.00368439165729563,0
3.975,1.65,-0.0064528243738496555,0
3.9770833333333333,1.64,-0.016590066916344813,0
3.9791666666666665,1.63,-0.026727334083202152,0
3.98125,1.62,-0.03686462399358087,0
3.9833333333333334,1.61,-0.04700193477284464,0
3.9854166666666666,1.61,-0.04713926455261842,0
3.9875,1.6,-0.05727661147084707,0
3.9895833333333335,1.6,-0.05741397367185096,0
3.9916666666666667,1.6,-0.057551349306383344,0
3.99375,1.59,-0.06768873653168697,0
3.995833333333333,1.59,-0.06782613351154998,0
3.997916666666667,1.59,-0.06796353841636377,0
4.0,1.59,-0.06810094942317862,0
4.002083333333333,1.58,-0.07823836471576043,0
4.004166666666666,1.58,-0.07837578248464473,0
4.00625,1.58,-0.07851320092719179,0
4.008333333333334,1.57,-0.08865061824763987,0
4.010416666666667,1.57,-0.0887880326571605,0
4.0125,1.57,-0.08892544237391267,0
4.014583333333333,1.57,-0.0890628456230956,0
4.016666666666667,1.57,-0.08920024063700216,0
4.01875,1.57,-0.08933762565507128,0
4.020833333333333,1.57,-0.08947499892393977,0
4.022916666666666,1.57,-0.08961235869749407,0
4.025,1.57,-0.08974970323692218,0
4.027083333333334,1.57,-0.08988703081076432,0
4.029166666666667,1.57,-0.09002433969496305,0
4.03125,1.56,-0.10016162817291271,0
4.033333333333333,1.57,-0.09029889453550821,0
4.035416666666666,1.57,-0.09043613708119357,0
4.0375,1.58,-0.08057335411601015,0
4.039583333333334,1.58,-0.08071054395364455,0
4.041666666666667,1.58,-0.08084770491547583,0
4.04375,1.58,-0.08098483533062124,0
4.045833333333333,1.58,-0.0811219335359813,0
4.047916666666667,1.58,-0.08125899787628502,0
4.05,1.58,-0.08139602670413346,0
4.052083333333333,1.59,-0.07153301838004354,0
4.054166666666666,1.59,-0.07166997127249151,0
4.05625,1.59,-0.07180688375795516,0
4.058333333333334,1.59,-0.0719437542209555,0
4.060416666666667,1.59,-0.07208058105409666,0
4.0625,1.6,-0.06221736265810515,0
4.064583333333333,1.6,-0.06235409744186801,0
4.066666666666666,1.59,-0.07249078382247015,0
4.06875,1.59,-0.07262742022523117,0
4.070833333333334,1.58,-0.08276400508374268,0
4.072916666666667,1.58,-0.08290053683990298,0
4.075,1.57,-0.09303701394394953,0
4.077083333333333,1.57,-0.09317343485449271,0
4.079166666666667,1.57,-0.09330979803854728,0
4.08125,1.57,-0.0934461019715643,0
4.083333333333333,1.56,-0.1035823451374607,0
4.085416666666666,1.56,-0.1037185260286481,0
4.0875,1.57,-0.09385464314605917,0
4.089583333333334,1.59,-0.07399069499917339,0
4.091666666666667,1.63,-0.03412668010604375,0
4.09375,1.71,0.04573740300667861,0
4.095833333333333,1.81,0.14560155580372192,0
4.097916666666666,1.93,0.26546577974117275,0
4.1,2.08,0.41533007626645585,0
4.102083333333334,2.24,0.5751944468183123,0
4.104166666666667,2.41,0.7450588928267843,0
4.10625,2.58,0.9149234157131972,0
4.108333333333333,2.7,1.0347880168901447,0
4.110416666666667,2.78,1.1146526977614746,0
4.1125,2.8,1.134517459722278,0
4.114583333333333,2.74,1.0743823041588811,0
4.116666666666666,2.64,0.9742472324488353,0
4.11875,2.52,0.8541122459609112,0
4.120833333333334,2.37,0.7039773460550879,0
4.122916666666667,2.22,0.5538425340825504,0
4.125,2.07,0.4037078113856832,0
4.127083333333333,1.94,0.2735731792980728,0
4.129166666666666,1.83,0.16343863914450413,0
4.13125,1.75,0.08330419224096448,0
4.133333333333334,1.69,0.023169839894645647,0
4.135416666666667,1.65,-0.01696441659605233,0
4.1375,1.63,-0.03709857594151614,0
4.139583333333333,1.61,-0.057232636860912955,0
4.141666666666667,1.61,-0.057366598082180614,0
4.14375,1.61,-0.05750045834201806,0
4.145833333333333,1.61,-0.05763421638587368,0
4.147916666666666,1.6,-0.06776787096793319,0
4.15,1.6,-0.06790142085110668,0
4.152083333333334,1.59,-0.07803486480701224,0
4.154166666666667,1.59,-0.07816820161596111,0
4.15625,1.59,-0.07830143006694046,0
4.158333333333333,1.58,-0.08843454895759448,0
4.160416666666666,1.58,-0.08856755709420339,0
4.1625,1.58,-0.08870045329166162,0
4.164583333333334,1.58,-0.08883323637345425,0
4.166666666666667,1.59,-0.07896590517163252,0
4.16875,1.58,-0.08909845852678863,0
4.170833333333333,1.59,-0.07923089528802846,0
4.172916666666667,1.59,-0.07936321431294355,0
4.175,1.59,-0.07949541446758251,0
4.177083333333333,1.59,-0.07962749462642077,0
4.179166666666666,1.59,-0.0797594536723289,0
4.18125,1.6,-0.06989129049653975,0
4.183333333333334,1.6,-0.07002300399861444,0
4.185416666666667,1.59,-0.08015459308640502,0
4.1875,1.6,-0.07028605667601781,0
4.189583333333333,1.6,-0.07041739369177702,0
4.191666666666666,1.61,-0.06054860306618383,0
4.19375,1.62,-0.05067968373987647,0
4.195833333333334,1.62,-0.050810634661589,0
4.197916666666667,1.62,-0.05094145478810905,0
4.2,1.63,-0.04107214308423293,0
4.202083333333333,1.63,-0.04120269852272111,0
4.204166666666667,1.63,-0.04133312008425219,0
4.20625,1.63,-0.0414634067573746,0
4.208333333333333,1.63,-0.041593557538458115,0
4.210416666666666,1.63,-0.04172357143164443,0
4.2125,1.64,-0.031853447448795966,0
4.214583333333334,1.64,-0.03198318460944416,0
4.216666666666667,1.65,-0.022112781940736584,0
4.21875,1.65,-0.022242238477382617,0
4.220833333333333,1.65,-0.022371553261598245,0
4.222916666666666,1.65,-0.022500725343050733,0
4.225,1.66,-0.012629753778800316,0
4.227083333333334,1.66,-0.01275863763324172,0
4.229166666666667,1.66,-0.012887375978044936,0
4.23125,1.67,-0.003015967892093116,0
4.233333333333333,1.67,-0.00314441246142054,0
4.235416666666667,1.68,0.0067272912208517985,0
4.2375,1.68,0.006599144054581743,0
4.239583333333333,1.68,0.00647114693266989,0
4.241666666666666,1.69,0.01634330074112634,0
4.24375,1.69,0.016215606359137835,0
4.245833333333334,1.7,0.026088064659135744,0
4.247916666666667,1.7,0.025960676506867078,0
4.25,1.7,0.025833442761465313,0
4.252083333333333,1.71,0.03570636427552337,0
4.254166666666666,1.72,0.045579441895166495,0
4.25625,1.72,0.045452676460126684,0
4.258333333333334,1.73,0.0553260688038178,0
4.260416666666667,1.73,0.055199619753413025,0
4.2625,1.74,0.06507333012992214,0
4.264583333333333,1.74,0.06494720074826947,0
4.266666666666667,1.75,0.07482123241737404,0
4.26875,1.76,0.08469542594022914,0
4.270833333333333,1.77,0.09456978211398631,0
4.272916666666666,1.78,0.10444430173003685,0
4.275,1.79,0.11431898557409736,0
4.277083333333334,1.8,0.12419383442629316,0
4.279166666666667,1.81,0.13406884906124633,0
4.28125,1.82,0.14394403024816266,0
4.283333333333333,1.83,0.15381937875091983,0
4.285416666666666,1.83,0.15369489532815567,0
4.2875,1.84,0.16357058073335956,0
4.289583333333334,1.85,0.1734464357149637,0
4.291666666666667,1.86,0.18332246101643504,0
4.29375,1.87,0.19319865737636893,0
4.295833333333333,1.88,0.20307502552858228,0
4.297916666666667,1.88,0.2029515662022098,0
4.3,1.89,0.21282828012179958,0
4.302083333333333,1.9,0.22270516800741008,0
4.304166666666666,1.9,0.2225822305747083,0
4.30625,1.91,0.23245946853506955,0
4.308333333333334,1.92,0.24233688259567776,0
4.310416666666667,1.92,0.24221447345962718,0
4.3125,1.93,0.2520922418260226,0
4.314583333333333,1.94,0.26197018839008135,0
4.316666666666666,1.95,0.2718483138432377,0
4.31875,1.95,0.27172661887324895,0
4.320833333333334,1.95,0.27160510416429967,0
4.322916666666667,1.96,0.2814837703971064,0
4.325,1.95,0.2713626182490261,0
4.327083333333333,1.96,0.281241648394162,0
4.329166666666667,1.96,0.2811208615034744,0
4.33125,1.95,0.27100025824488827,0
4.333333333333333,1.95,0.27087983928340265,0
4.335416666666666,1.95,0.270759605281201,0
4.3375,1.95,0.2706395568977632,0
4.339583333333334,1.94,0.2605196947899776,0
4.341666666666667,1.94,0.2604000196122531,0
4.34375,1.93,0.2502805320166331,0
4.345833333333333,1.92,0.24016123265290784,0
4.347916666666666,1.91,0.23004212216872855,0
4.35,1.9,0.2199232012097209,0
4.352083333333334,1.89,0.20980447041960143,0
4.354166666666667,1.87,0.18968593044029414,0
4.35625,1.86,0.1795675819120437,0
4.358333333333333,1.84,0.1594494254735334,0
4.360416666666667,1.83,0.1493314617620016,0
4.3625,1.82,0.1392136914133582,0
4.364583333333333,1.8,0.11909611506230283,0
4.366666666666666,1.79,0.1089787333424401,0
4.36875,1.78,0.09886154688639837,0
4.370833333333334,1.76,0.07874455632594747,0
4.372916666666667,1.74,0.05862776229211557,0
4.375,1.68,-0.0014888345846927609,0
4.377083333333333,1.67,-0.011605233674579885,0
4.379166666666666,1.66,-0.021721434348037055,0
4.38125,1.64,-0.04183743597582665,0
4.383333333333334,1.63,-0.051953237928863805,0
4.385416666666667,1.62,-0.062068839578099055,0
4.3875,1.61,-0.07218424029440143,0
4.389583333333333,1.6,-0.08229943944843943,0
4.391666666666667,1.59,-0.09241443641056471,0
4.39375,1.58,-0.10252923055069599,0
4.395833333333333,1.57,-0.11264382123820399,0
4.397916666666666,1.57,-0.11275820784179363,0
4.4,1.56,-0.12287238972938752,0
4.402083333333334,1.56,-0.1229863662680119,0
4.404166666666667,1.56,-0.12310013682368087,0
4.40625,1.55,-0.13321370076128208,0
4.408333333333333,1.55,-0.13332705744446277,0
4.410416666666666,1.55,-0.13344020623551797,0
4.4125,1.54,-0.14355314649527823,0
4.414583333333334,1.54,-0.14366587758299815,0
4.416666666666667,1.54,-0.14377839885624466,0
4.41875,1.54,-0.14389070967078674,0
4.420833333333333,1.54,-0.14400280938048574,0
4.422916666666667,1.53,-0.1541146973371865,0
4.425,1.53,-0.15422637289060886,0
4.427083333333333,1.52,-0.16433783538823865,0
4.429166666666666,1.52,-0.16444908417522155,0
4.43125,1.52,-0.16456011859425593,0
4.433333333333334,1.52,-0.16467093798548832,0
4.435416666666667,1.53,-0.1547815416864086,0
4.4375,1.52,-0.16489192903174826,0
4.439583333333333,1.52,-0.1650020993533789,0
4.441666666666666,1.52,-0.1651120519802111,0
4.44375,1.52,-0.16522178623809403,0
4.445833333333334,1.52,-0.16533130144971772,0
4.447916666666667,1.53,-0.15544059693451565,0
4.45,1.53,-0.15554967200856723,0
4.452083333333333,1.53,-0.15565852598450372,0
4.454166666666667,1.54,-0.14576715817141403,0
4.45625,1.54,-0.14587556787475217,0
4.458333333333333,1.54,-0.14598375439624628,0
4.460416666666666,1.54,-0.1460917170338084,0
4.4625,1.54,-0.1461994550814446,0
4.464583333333334,1.54,-0.14630696782916833,0
4.466666666666667,1.54,-0.14641425456291365,0
4.46875,1.54,-0.14652131456445025,0
4.470833333333333,1.54,-0.14662814711130026,0
4.472916666666666,1.54,-0.14673475147665546,0
4.475,1.55,-0.1368411269292968,0
4.477083333333334,1.55,-0.13694727273351487,0
4.479166666666667,1.55,-0.13705318814903095,0
4.48125,1.55,-0.13715887243091934,0
4.483333333333333,1.55,-0.1372643248295322,0
4.485416666666667,1.56,-0.12736954459042743,0
4.4875,1.56,-0.12747453095429617,0
4.489583333333333,1.56,-0.12757928315689104,0
4.491666666666666,1.56,-0.12768380042895777,0
4.49375,1.56,-0.12778808199616695,0
4.495833333333334,1.57,-0.11789212707904922,0
4.497916666666667,1.57,-0.1179959348929309,0
4.5,1.57,-0.118099504647871,0
4.502083333333333,1.57,-0.11820283554859996,0
4.504166666666666,1.57,-0.11830592679446046,0
4.50625,1.57,-0.11840877757934924,0
4.508333333333334,1.57,-0.11851138709166151,0
4.510416666666667,1.57,-0.11861375451423671,0
4.5125,1.57,-0.11871587902430478,0
4.514583333333333,1.58,-0.10881775979343523,0
4.516666666666667,1.57,-0.11891939598748731,0
4.51875,1.58,-0.10902078676656268,0
4.520833333333333,1.57,-0.11912193128495786,0
4.522916666666666,1.57,-0.11922282869112245,0
4.525,1.58,-0.10932347812761399,0
4.527083333333334,1.58,-0.10942387873105729,0
4.529166666666667,1.58,-0.10952402963210665,0
4.53125,1.58,-0.10962392995540812,0
4.533333333333333,1.58,-0.10972357881956399,0
4.535416666666666,1.58,-0.10982297533709821,0
4.5375,1.58,-0.10992211861442441,0
4.539583333333334,1.58,-0.11002100775181725,0
4.541666666666667,1.58,-0.11011964184338272,0
4.54375,1.57,-0.12021801997703102,0
4.545833333333333,1.57,-0.12031614123445242,0
4.547916666666667,1.57,-0.12041400469109426,0
4.55,1.57,-0.12051160941613936,0
4.552083333333333,1.57,-0.12060895447248733,0
4.554166666666666,1.57,-0.12070603891673688,0
4.55625,1.57,-0.12080286179917013,0
4.558333333333334,1.58,-0.11089942216373924,0
4.560416666666667,1.58,-0.11099571904805315,0
4.5625,1.58,-0.11109175148336813,0
4.564583333333333,1.58,-0.11118751849457803,0
4.566666666666666,1.58,-0.11128301910020794,0
4.56875,1.58,-0.11137825231240972,0
4.570833333333334,1.58,-0.1114732171369596,0
4.572916666666667,1.58,-0.11156791257325627,0
4.575,1.58,-0.11166233761432152,0
4.577083333333333,1.59,-0.10175649124680314,0
4.579166666666667,1.58,-0.11185037245098017,0
4.58125,1.58,-0.11194398020076993,0
4.583333333333333,1.58,-0.11203731346373552,0
4.585416666666666,1.58,-0.11213037120109516,0
4.5875,1.58,-0.11222315236773364,0
4.589583333333334,1.58,-0.1123156559122169,0
4.591666666666667,1.58,-0.11240788077680718,0
4.59375,1.58,-0.11249982589747962,0
4.595833333333333,1.58,-0.11259149020394207,0
4.597916666666666,1.58,-0.1126828726196559,0
4.6,1.58,-0.11277397206185805,0
4.602083333333334,1.58,-0.11286478744158586,0
4.604166666666667,1.58,-0.1129553176637033,0
4.60625,1.58,-0.11304556162693011,0
4.608333333333333,1.58,-0.11313551822387026,0
4.610416666666667,1.58,-0.11322518634104387,0
4.6125,1.58,-0.11331456485892176,0
4.614583333333333,1.58,-0.11340365265196017,0
4.616666666666666,1.58,-0.11349244858863804,0
4.61875,1.58,-0.11358095153149525,0
4.620833333333334,1.58,-0.113669160337173,0
4.622916666666667,1.58,-0.11375707385645599,0
4.625,1.59,-0.10384469093431589,0
4.627083333333333,1.59,-0.10393201040995725,0
4.629166666666666,1.59,-0.10401903111686557,0
4.63125,1.59,-0.10410575188285698,0
4.633333333333334,1.59,-0.10419217153012868,0
4.635416666666667,1.59,-0.10427828887531158,0
4.6375,1.59,-0.1043641027295236,0
4.639583333333333,1.59,-0.10444961189842619,0
4.641666666666667,1.59,-0.10453481518228101,0
4.64375,1.59,-0.1046197113760093,0
4.645833333333333,1.59,-0.10470429926925257,0
4.647916666666666,1.59,-0.10478857764643484,0
4.65,1.59,-0.10487254528682514,0
4.652083333333334,1.6,-0.09495620096460308,0
4.654166666666667,1.6,-0.0950395434489265,0
4.65625,1.6,-0.09512257150399908,0
4.658333333333333,1.6,-0.0952052838891401,0
4.660416666666666,1.6,-0.0952876793588561,0
4.6625,1.6,-0.09536975666291389,0
4.664583333333334,1.6,-0.09545151454641497,0
4.666666666666667,1.6,-0.09553295174987167,0
4.66875,1.6,-0.09561406700928446,0
4.670833333333333,1.6,-0.09569485905621972,0
4.672916666666667,1.61,-0.08577532661789102,0
4.675,1.62,-0.07585546841724056,0
4.677083333333333,1.63,-0.06593528317302247,0
4.679166666666666,1.64,-0.05601476959988609,0
4.68125,1.65,-0.04609392640846269,0
4.683333333333334,1.66,-0.0361727523054519,0
4.685416666666667,1.66,-0.036251245993710365,0
4.6875,1.67,-0.026329406172342626,0
4.689583333333333,1.67,-0.02640723153679253,0
4.691666666666666,1.68,-0.016484720778932135,0
4.69375,1.68,-0.016561872587154552,0
4.695833333333334,1.68,-0.016638685646470835,0
4.697916666666667,1.68,-0.01671515863860501,0
4.7,1.67,-0.026791290242090454,0
4.702083333333333,1.67,-0.02686707913236755,0
4.704166666666667,1.67,-0.026942523981884098,0
4.70625,1.67,-0.027017623460194734,0
4.708333333333333,1.68,-0.01709237623406268,0
4.710416666666666,1.69,-0.007166780967562014,0
4.7125,1.69,-0.0072408363221806715,0
4.714583333333334,1.7,0.002685459043072838,0
4.716666666666667,1.71,0.012612106471563883,0
4.71875,1.72,0.02253910730892554,0
4.720833333333333,1.72,0.022466462902951845,0
4.722916666666666,1.72,0.02239417460348983,0
4.725,1.73,0.03232224376232898,0
4.727083333333334,1.73,0.03225067173309183,0
4.729166666666667,1.72,0.022179459871122617,0
4.73125,1.72,0.022108609533375193,0
4.733333333333333,1.71,0.012038122078299823,0
4.735416666666667,1.71,0.011967998865729745,0
4.7375,1.7,0.0018982412567669915,0
4.739583333333333,1.7,0.0018288506136680538,0
4.741666666666666,1.69,-0.008240171700273413,0
4.74375,1.69,-0.008308824320843677,0
4.745833333333334,1.68,-0.01837710588302803,0
4.747916666666667,1.67,-0.028445015021128506,0
4.75,1.65,-0.04851255036888137,0
4.752083333333333,1.64,-0.058579710559576725,0
4.754166666666666,1.63,-0.0686464942261797,0
4.75625,1.62,-0.07871290000145104,0
4.758333333333334,1.62,-0.07877892651806849,0
4.760416666666667,1.62,-0.0788445724087487,0
4.7625,1.61,-0.08890983630637109,0
4.764583333333333,1.61,-0.08897471684409963,0
4.766666666666667,1.61,-0.08903921265550675,0
4.76875,1.61,-0.08910332237469701,0
4.770833333333333,1.61,-0.08916704463643207,0
4.772916666666666,1.6,-0.09923037807625541,0
4.775,1.6,-0.09929332133061951,0
4.777083333333334,1.6,-0.09935587303701046,0
4.779166666666667,1.6,-0.09941803183407544,0
4.78125,1.6,-0.09947979636174996,0
4.783333333333333,1.6,-0.09954116526138418,0
4.785416666666666,1.6,-0.09960213717587035,0
4.7875,1.6,-0.09966271074977107,0
4.789583333333334,1.6,-0.09972288462944748,0
4.791666666666667,1.6,-0.09978265746318742,0
4.79375,1.6,-0.09984202790133459,0
4.795833333333333,1.6,-0.09990099459641687,0
4.797916666666667,1.6,-0.09995955620327568,0
4.8,1.6,-0.10001771137919623,0
4.802083333333333,1.6,-0.1000754587840364,0
4.804166666666666,1.6,-0.10013279708035609,0
4.80625,1.6,-0.10018972493354653,0
4.808333333333334,1.6,-0.10024624101195875,0
4.810416666666667,1.6,-0.10030234398703272,0
4.8125,1.61,-0.09035803253342828,0
4.814583333333333,1.61,-0.09041330532915319,0
4.816666666666666,1.62,-0.08046816105569399,0
4.81875,1.61,-0.09052259839814455,0
4.820833333333334,1.61,-0.09057661604533562,0
4.822916666666667,1.61,-0.09063021268996324,0
4.825,1.61,-0.0906833870287171,0
4.827083333333333,1.61,-0.09073613776240963,0
4.829166666666667,1.61,-0.09078846359610426,0
4.83125,1.61,-0.09084036323924385,0
4.833333333333333,1.61,-0.09089183540577835,0
4.835416666666666,1.61,-0.0909428788142921,0
4.8375,1.6,-0.10099349218812996,0
4.839583333333334,1.59,-0.11104367425552462,0
4.841666666666667,1.59,-0.1110934237497229,0
4.84375,1.59,-0.11114273940911303,0
4.845833333333333,1.59,-0.11119161997735026,0
4.847916666666666,1.59,-0.11124006420348087,0
4.85,1.61,-0.091288070842067,0
4.852083333333334,1.64,-0.06133563865330986,0
4.854166666666667,1.71,0.008617233596829199,0
4.85625,1.79,0.08857054713650428,0
4.858333333333333,1.91,0.2085243031878658,0
4.860416666666667,2.05,0.34847850296693933,0
4.8625,2.21,0.5084331476835046,0
4.864583333333333,2.39,0.6883882385409745,0
4.866666666666666,2.56,0.8583437767362763,0
4.86875,2.7,0.9982997634597366,0
4.870833333333334,2.79,1.0882561998949616,0
4.872916666666667,2.83,1.1282130872187246,0
4.875,2.79,1.0881704266008474,0
4.877083333333333,2.7,0.9981282192040911,0
4.879166666666666,2.58,0.8780864661840417,0
4.88125,2.43,0.7280451686889975,0
4.883333333333334,2.28,0.578004327859859,0
4.885416666666667,2.13,0.4279639448300221,0
4.8875,1.98,0.2779240207252659,0
4.889583333333333,1.87,0.16788455666364716,0
4.891666666666667,1.78,0.0778455537553965,0
4.89375,1.72,0.017807013102812158,0
4.895833333333333,1.68,-0.022231064199846953,0
4.897916666666666,1.65,-0.052268677066461655,0
4.9,1.63,-0.07230582441915603,0
4.902083333333334,1.62,-0.08234250518839778,0
4.904166666666667,1.61,-0.09237871831309918,0
4.90625,1.61,-0.09241446274071582,0
4.908333333333333,1.61,-0.09244973742734411,0
4.910416666666666,1.61,-0.09248454133781883,0
4.9125,1.6,-0.10251887344580798,0
4.914583333333334,1.6,-0.10255273273390814,0
4.916666666666667,1.6,-0.10258611819373867,0
4.91875,1.6,-0.10261902882603377,0
4.920833333333333,1.61,-0.09265146364073479,0
4.922916666666667,1.61,-0.09268342165708118,0
4.925,1.61,-0.09271490190369922,0
4.927083333333333,1.61,-0.09274590341869068,0
4.929166666666666,1.61,-0.09277642524972071,0
4.93125,1.6,-0.10280646645410338,0
4.933333333333334,1.6,-0.10283602609888937,0
4.935416666666667,1.61,-0.09286510326095007,0
4.9375,1.61,-0.09289369702706077,0
4.939583333333333,1.61,-0.09292180649398296,0
4.941666666666666,1.61,-0.09294943076854462,0
4.94375,1.62,-0.08297656896772056,0
4.945833333333334,1.62,-0.08300322021871219,0
4.947916666666667,1.62,-0.08302938365902549,0
4.95,1.63,-0.07305505843654869,0
4.952083333333333,1.62,-0.08308024370962726,0
4.954166666666667,1.62,-0.08310493864713939,0
4.95625,1.63,-0.0731291424285699,0
4.958333333333333,1.63,-0.07315285424408317,0
4.960416666666666,1.63,-0.07317607329459307,0
4.9625,1.64,-0.06319879879183464,0
4.964583333333334,1.64,-0.06322102995843248,0
4.966666666666667,1.64,-0.06324276602796844,0
4.96875,1.65,-0.0532640062450484,0
4.970833333333333,1.66,-0.04328474986536956,0
4.972916666666666,1.66,-0.04330499615578512,0
4.975,1.66,-0.043324744394367745,0
4.977083333333334,1.67,-0.03334399387047395,0
4.979166666666667,1.67,-0.03336274388480432,0
4.98125,1.68,-0.02338099374946241,0
4.983333333333333,1.68,-0.023398742788012794,0
4.985416666666667,1.69,-0.013415990335539592,0
4.9875,1.69,-0.01343273573870286,0
4.989583333333333,1.69,-0.013448978355794453,0
4.991666666666666,1.69,-0.013464717556792748,0
4.99375,1.69,-0.013479952723415638,0
4.995833333333334,1.7,-0.0034946832491724693,0
4.997916666666667,1.7,-0.003508908539413838,0
5.0,1.72,0.01647737198861953,0
5.002083333333333,1.72,0.016464158905749048,0
5.004166666666666,1.72,0.016451452770812735,0
5.00625,1.73,0.02643925413061917,0
5.008333333333334,1.73,0.026427563519904218,0
5.010416666666667,1.74,0.03641638146128787,0
5.0125,1.74,0.03640570846523322,0
5.014583333333333,1.75,0.04639554503000623,0
5.016666666666667,1.76,0.05638589164163582,0
5.01875,1.76,0.056376748773877564,0
5.020833333333333,1.77,0.06636811688817743,0
5.022916666666666,1.78,0.07635999643363775,0
5.025,1.78,0.07635238784698298,0
5.027083333333334,1.79,0.08634529155252797,0
5.029166666666667,1.8,0.09633870796214794,0
5.03125,1.8,0.09633263747524941,0
5.033333333333333,1.81,0.10632708047874173,0
5.035416666666666,1.82,0.1163220373470114,0
5.0375,1.83,0.1263175084418956,0
5.039583333333334,1.84,0.13631349411265914,0
5.041666666666667,1.84,0.1363099946959741,0
5.04375,1.85,0.1463070105158995,0
5.045833333333333,1.87,0.16630454188386115,0
5.047916666666667,1.87,0.16630258909863244,0
5.05,1.88,0.17630115244631941,0
5.052083333333333,1.89,0.18630023220034517,0
5.054166666666666,1.9,0.1962998286214345,0
5.05625,1.9,0.19629994195760309,0
5.058333333333334,1.91,0.2063005724441473,0
5.060416666666667,1.92,0.21630172030363465,0
5.0625,1.93,0.2263033857458958,0
5.064583333333333,1.94,0.2363055689680188,0
5.066666666666666,1.95,0.24630827015434165,0
5.06875,1.95,0.24631148947645104,0
5.070833333333334,1.96,0.2563152270931807,0
5.072916666666667,1.96,0.2563194831506101,0
5.075,1.97,0.26632425778206525,0
5.077083333333333,1.98,0.2763295511081215,0
5.079166666666667,1.98,0.2763353632366065,0
5.08125,1.98,0.2763416942626067,0
5.083333333333333,1.99,0.2863485442684728,0
5.085416666666666,1.99,0.286355913323828,0
5.0875,1.99,0.2863638014855767,0
5.089583333333334,1.99,0.28637220879791625,0
5.091666666666667,1.99,0.2863811352923486,0
5.09375,1.99,0.2863905809876942,0
5.095833333333333,1.99,0.286400545890107,0
5.097916666666666,1.98,0.27641102999309053,0
5.1,1.98,0.27642203327751447,0
5.102083333333334,1.97,0.2664335557116339,0
5.104166666666667,1.96,0.2564455972511094,0
5.10625,1.95,0.24645815783902678,0
5.108333333333333,1.94,0.2364712374059221,0
5.110416666666667,1.94,0.23648483586980462,0
5.1125,1.92,0.2164989531361821,0
5.114583333333333,1.91,0.20651358909808745,0
5.116666666666666,1.9,0.196528743636105,0
5.11875,1.89,0.18654441661839977,0
5.120833333333334,1.87,0.16656060790074678,0
5.122916666666667,1.86,0.1565773173265611,0
5.125,1.84,0.13659454472693142,0
5.127083333333333,1.82,0.11661228992065098,0
5.129166666666666,1.8,0.09663055271425261,0
5.13125,1.79,0.08664933290204327,0
5.133333333333334,1.77,0.0666686302661401,0
5.135416666666667,1.76,0.056688444576507666,0
5.1375,1.74,0.036708775590994364,0
5.139583333333333,1.73,0.026729623055372187,0
5.141666666666667,1.72,0.01675098670337577,0
5.14375,1.71,0.006772866256741644,0
5.145833333333333,1.7,-0.003204738574749205,0
5.147916666666666,1.68,-0.02318182809322933,0
5.15,1.67,-0.03315840261270392,0
5.152083333333334,1.66,-0.04313446245900665,0
5.154166666666667,1.65,-0.053110007969755624,0
5.15625,1.64,-0.06308503949430916,0
5.158333333333333,1.63,-0.07305955739372036,0
5.160416666666666,1.63,-0.07303356204069134,0
5.1625,1.62,-0.08300705381952503,0
5.164583333333334,1.61,-0.09298003312608069,0
5.166666666666667,1.61,-0.09295250036772501,0
5.16875,1.61,-0.09292445596328411,0
5.170833333333333,1.6,-0.10289590034299456,0
5.172916666666667,1.6,-0.10286683394845497,0
5.175,1.59,-0.11283725723257693,0
5.177083333333333,1.59,-0.11280717065953516,0
5.179166666666666,1.59,-0.11277657470472008,0
5.18125,1.59,-0.11274546985468711,0
5.183333333333334,1.59,-0.11271385660710581,0
5.185416666666667,1.59,-0.11268173547070823,0
5.1875,1.58,-0.12264910696523845,0
5.189583333333333,1.58,-0.12261597162139967,0
5.191666666666666,1.58,-0.1225823299808026,0
5.19375,1.58,-0.12254818259591352,0
5.195833333333334,1.58,-0.1225135300300027,0
5.197916666666667,1.57,-0.1324783728570932,0
5.2,1.57,-0.13244271166190827,0
5.202083333333333,1.57,-0.1324065470398195,0
5.204166666666667,1.58,-0.12236987959679538,0
5.20625,1.58,-0.12233270994934867,0
5.208333333333333,1.57,-0.1322950387244829,0
5.210416666666666,1.58,-0.12225686655964121,0
5.2125,1.58,-0.12221819410265311,0
5.214583333333334,1.58,-0.12217902201168296,0
5.216666666666667,1.58,-0.12213935095517725,0
5.21875,1.58,-0.12209918161181216,0
5.220833333333333,1.59,-0.11205851467044162,0
5.222916666666666,1.59,-0.11201735083004516,0
5.225,1.59,-0.11197569079967676,0
5.227083333333334,1.58,-0.12193353529841347,0
5.229166666666667,1.58,-0.12189088505530321,0
5.23125,1.59,-0.11184774080931387,0
5.233333333333333,1.59,-0.1118041033092809,0
5.235416666666667,1.6,-0.10175997331385703,0
5.2375,1.59,-0.11171535159146159,0
5.239583333333333,1.6,-0.1016702389202282,0
5.241666666666666,1.6,-0.10162463608795691,0
5.24375,1.6,-0.10157854389206139,0
5.245833333333334,1.6,-0.10153196313952131,0
5.247916666666667,1.6,-0.10148489464683244,0
5.25,1.6,-0.10143733923995701,0
5.252083333333333,1.61,-0.09138929775427565,0
5.254166666666666,1.61,-0.09134077103453694,0
5.25625,1.61,-0.09129175993481056,0
5.258333333333334,1.61,-0.09124226531843817,0
5.260416666666667,1.62,-0.08119228805798671,0
5.2625,1.62,-0.08114182903520166,0
5.264583333333333,1.62,-0.08109088914095991,0
5.266666666666667,1.62,-0.08103946927522303,0
5.26875,1.62,-0.08098757034699156,0
5.270833333333333,1.61,-0.09093519327426032,0
5.272916666666666,1.62,-0.08088233898397201,0
5.275,1.62,-0.08082900841197234,0
5.277083333333334,1.62,-0.0807752025029659,0
5.279166666666667,1.62,-0.0807209222104726,0
5.28125,1.61,-0.09066616849678441,0
5.283333333333333,1.62,-0.08061094233292171,0
5.285416666666666,1.62,-0.08055524469859174,0
5.2875,1.62,-0.080499076582146,0
5.289583333333334,1.61,-0.09044243898053947,0
5.291666666666667,1.61,-0.09038533289928877,0
5.29375,1.61,-0.09032775935243166,0
5.295833333333333,1.61,-0.09026971936248625,0
5.297916666666667,1.61,-0.09021121396041086,0
5.3,1.61,-0.09015224418556501,0
5.302083333333333,1.62,-0.08009281108567096,0
5.304166666666666,1.61,-0.09003291571677599,0
5.30625,1.61,-0.08997255914321574,0
5.308333333333334,1.62,-0.07991174243757677,0
5.310416666666667,1.61,-0.08985046668065966,0
5.3125,1.62,-0.07978873296144356,0
5.314583333333333,1.62,-0.07972654237705058,0
5.316666666666666,1.62,-0.07966389603271068,0
5.31875,1.62,-0.07960079504172839,0
5.320833333333334,1.62,-0.07953724052544928,0
5.322916666666667,1.62,-0.07947323361322634,0
5.325,1.63,-0.06940877544238658,0
5.327083333333333,1.63,-0.06934386715819937,0
5.329166666666667,1.62,-0.07927850991384547,0
5.33125,1.63,-0.06921270487038525,0
5.333333333333333,1.62,-0.07914645319672765,0
5.335416666666666,1.63,-0.06907975606960265,0
5.3375,1.63,-0.06901261467352976,0
5.339583333333334,1.62,-0.07894503020079069,0
5.341666666666667,1.62,-0.07887700385140052,0
5.34375,1.63,-0.0688085368330792,0
5.345833333333333,1.62,-0.07873963036122503,0
5.347916666666666,1.62,-0.07867028565888845,0
5.35,1.61,-0.08860050395674626,0
5.352083333333334,1.61,-0.08853028649307657,0
5.354166666666667,1.61,-0.08845963451373341,0
5.35625,1.6,-0.09838854927212175,0
5.358333333333333,1.61,-0.08831703202917449,0
5.360416666666667,1.61,-0.08824508405332913,0
5.3625,1.61,-0.088172706620505,0
5.364583333333333,1.61,-0.08809990101408019,0
5.366666666666666,1.62,-0.07802666852487081,0
5.36875,1.62,-0.07795301045110949,0
5.370833333333334,1.62,-0.07787892809842596,0
5.372916666666667,1.61,-0.08780442277982758,0
5.375,1.61,-0.08772949581567965,0
5.377083333333333,1.61,-0.08765414853368611,0
5.379166666666666,1.61,-0.08757838226887096,0
5.38125,1.61,-0.08750219836355988,0
5.383333333333334,1.61,-0.08742559816736277,0
5.385416666666667,1.61,-0.0873485830371577,0
5.3875,1.61,-0.08727115433707439,0
5.389583333333333,1.61,-0.08719331343847747,0
5.391666666666667,1.61,-0.08711506171995158,0
5.39375,1.61,-0.0870364005672857,0
5.395833333333333,1.61,-0.08695733137345976,0
5.397916666666666,1.61,-0.08687785553863032,0
5.4,1.61,-0.08679797447011696,0
5.402083333333334,1.62,-0.07671768958238996,0
5.404166666666667,1.62,-0.07663700229705644,0
5.40625,1.63,-0.06655591404284944,0
5.408333333333333,1.63,-0.06647442625561537,0
5.410416666666666,1.64,-0.056392540378303484,0
5.4125,1.64,-0.056310257860953075,0
5.414583333333334,1.65,-0.046227580160684276,0
5.416666666666667,1.7,0.003855491258313179,0
5.41875,1.7,0.003938954924789476,0
5.420833333333333,1.7,0.0040228093604436355,0
5.422916666666667,1.7,0.004107053079932754,0
5.425,1.7,0.004191684590880998,0
5.427083333333333,1.69,-0.005723297606111413,0
5.429166666666666,1.7,0.004362104982539541,0
5.43125,1.7,0.004447890843410962,0
5.433333333333334,1.7,0.0045340584560787656,0
5.435416666666667,1.71,0.014620606293126767,0
5.4375,1.72,0.02470753282015313,0
5.439583333333333,1.73,0.034794836495778664,0
5.441666666666666,1.73,0.034882515771652786,0
5.44375,1.74,0.044970569092459126,0
5.445833333333334,1.74,0.045058994895922244,0
5.447916666666667,1.74,0.045147791612812085,0
5.45,1.74,0.04523695766694989,0
5.452083333333333,1.75,0.05532649147521425,0
5.454166666666667,1.75,0.05541639144754622,0
5.45625,1.75,0.055506655986954756,0
5.458333333333333,1.75,0.05559728348952145,0
5.460416666666666,1.75,0.05568827234440596,0
5.4625,1.75,0.05577962093385061,0
5.464583333333334,1.74,0.04587132763318469,0
5.466666666666667,1.74,0.0459633908108293,0
5.46875,1.73,0.03605580882829952,0
5.470833333333333,1.71,0.016148580040210192,0
5.472916666666666,1.7,0.006241702794278728,0
5.475,1.69,-0.003664824568668998,0
5.477083333333334,1.68,-0.013571003714696925,0
5.479166666666667,1.66,-0.03347683631675412,0
5.48125,1.65,-0.043382324054671205,0
5.483333333333333,1.64,-0.053287468615157235,0
5.485416666666667,1.63,-0.06319227169179564,0
5.4875,1.63,-0.06309673498504112,0
5.489583333333333,1.62,-0.07300086020221479,0
5.491666666666666,1.62,-0.07290464905750277,0
5.49375,1.61,-0.08280810327195186,0
5.495833333333334,1.61,-0.08271122457346677,0
5.497916666666667,1.6,-0.09261401469680605,0
5.5,1.6,-0.09251647538357759,0
5.502083333333333,1.6,-0.09241860838223637,0
5.504166666666666,1.6,-0.09232041544808134,0
5.50625,1.6,-0.09222189834325178,0
5.508333333333334,1.59,-0.10212305883672296,0
5.510416666666667,1.59,-0.10202389870430396,0
5.5125,1.6,-0.09192441972863484,0
5.514583333333333,1.59,-0.10182462369918323,0
5.516666666666667,1.59,-0.10172451241223862,0
5.51875,1.59,-0.10162408767091048,0
5.520833333333333,1.59,-0.10152335128512435,0
5.522916666666666,1.59,-0.10142230507161781,0
5.525,1.59,-0.10132095085393605,0
5.527083333333334,1.59,-0.10121929046242757,0
5.529166666666667,1.59,-0.1011173257342392,0
5.53125,1.59,-0.10101505851331159,0
5.533333333333333,1.58,-0.11091249065037512,0
5.535416666666666,1.58,-0.11080962400294492,0
5.5375,1.58,-0.1107064604353146,0
5.539583333333334,1.58,-0.1106030018185507,0
5.541666666666667,1.58,-0.11049925003048688,0
5.54375,1.58,-0.11039520695571867,0
5.545833333333333,1.58,-0.11029087448559624,0
5.547916666666667,1.58,-0.11018625451821729,0
5.55,1.58,-0.11008134895842209,0
5.552083333333333,1.58,-0.10997615971778543,0
5.554166666666666,1.58,-0.10987068871460944,0
5.55625,1.59,-0.09976493787391597,0
5.558333333333334,1.59,-0.09965890912743779,0
5.560416666666667,1.59,-0.0995526044136101,0
5.5625,1.59,-0.09944602567756111,0
5.564583333333333,1.58,-0.10933917487110348,0
5.566666666666666,1.58,-0.10923205395272374,0
5.56875,1.57,-0.11912466488757197,0
5.570833333333334,1.57,-0.11901700964745006,0
5.572916666666667,1.56,-0.12890909021079988,0
5.575,1.55,-0.13880090856269173,0
5.577083333333333,1.56,-0.1286924666948103,0
5.579166666666667,1.56,-0.12858376660544207,0
5.58125,1.57,-0.11847481029946084,0
5.583333333333333,1.6,-0.08836559978831339,0
5.585416666666666,1.66,-0.028256137090004532,0
5.5875,1.74,0.051853575770919674,0
5.589583333333334,1.85,0.16196353676338737,0
5.591666666666667,1.97,0.28207374384981765,0
5.59375,2.14,0.4521841949861406,0
5.595833333333333,2.31,0.6222948881218131,0
5.597916666666666,2.48,0.7924058211998413,0
5.6,2.63,0.9425169921567993,0
5.602083333333334,2.73,1.0426283989228513,0
5.604166666666667,2.77,1.0827400394217714,0
5.60625,2.75,1.0628519115709694,0
5.608333333333333,2.68,0.9929640132815158,0
5.610416666666667,2.58,0.8930763424581691,0
5.6125,2.44,0.7531888969993996,0
5.614583333333333,2.28,0.5933016747974156,0
5.616666666666666,2.12,0.4334146737381923,0
5.61875,1.97,0.2835278917014966,0
5.620833333333334,1.84,0.1536413265609224,0
5.622916666666667,1.74,0.05375497618391861,0
5.625,1.54,-0.14613116156817813,0
5.627083333333333,1.54,-0.14601708884011233,0
5.629166666666666,1.54,-0.14590280778267703,0
5.63125,1.54,-0.14578832055267932,0
5.633333333333334,1.55,-0.13567362931290564,0
5.635416666666667,1.56,-0.1255587362320852,0
5.6375,1.56,-0.1254436434848536,0
5.639583333333333,1.56,-0.12532835325171424,0
5.641666666666667,1.56,-0.12521286771899978,0
5.64375,1.56,-0.12509718907883247,0
5.645833333333333,1.56,-0.12498131952908464,0
5.647916666666666,1.57,-0.11486526127333735,0
5.65,1.57,-0.11474901652083896,0
5.652083333333334,1.57,-0.11463258748646396,0
5.654166666666667,1.57,-0.11451597639066877,0
5.65625,1.58,-0.10439918545944793,0
5.658333333333333,1.58,-0.10428221692428924,0
5.660416666666666,1.59,-0.09416507302212851,0
5.6625,1.59,-0.09404775599530271,0
5.664583333333334,1.59,-0.09393026809150301,0
5.666666666666667,1.6,-0.08381261156372787,0
5.66875,1.59,-0.09369478867023509,0
5.670833333333333,1.6,-0.08357680167449057,0
5.672916666666667,1.6,-0.08345865284512113,0
5.675,1.61,-0.07334034445586106,0
5.677083333333333,1.6,-0.08322187878550022,0
5.679166666666666,1.61,-0.07310325811783279,0
5.68125,1.61,-0.07298448474160257,0
5.683333333333334,1.61,-0.0728655609504507,0
5.685416666666667,1.61,-0.07274648904286053,0
5.6875,1.61,-0.07262727132210263,0
5.689583333333333,1.62,-0.06250791009617877,0
5.691666666666666,1.62,-0.06238840767776574,0
5.69375,1.63,-0.05226876638415824,0
5.695833333333334,1.63,-0.05214898853721149,0
5.697916666666667,1.63,-0.05202907646328182,0
5.7,1.63,-0.0519090324931667,0
5.702083333333333,1.64,-0.041788858962044435,0
5.704166666666667,1.64,-0.04166855820941266,0
5.70625,1.64,-0.041548132579027085,0
5.708333333333333,1.64,-0.04142758441883839,0
5.710416666666666,1.65,-0.03130691608092735,0
5.7125,1.65,-0.031186129921442637,0
5.714583333333334,1.65,-0.031065228300536096,0
5.716666666666667,1.66,-0.02094421358229745,0
5.71875,1.66,-0.02082308813468769,0
5.720833333333333,1.67,-0.010701854329473483,0
5.722916666666666,1.67,-0.010580514542158609,0
5.725,1.67,-0.010459071151914192,0
5.727083333333334,1.67,-0.010337526541508681,0
5.729166666666667,1.68,-0.0002158830972372192,0
5.73125,1.68,-9.414320885150346e-05,0
5.733333333333333,1.69,0.010027690730511202,0
5.735416666666667,1.69,0.01014961632439911,0
5.7375,1.69,0.01027163117311955,0
5.739583333333333,1.7,0.02039373287381292,0
5.741666666666666,1.71,0.030515919020526628,0
5.74375,1.71,0.03063818720429108,0
5.745833333333334,1.72,0.0407605350131984,0
5.747916666666667,1.73,0.050882960032477886,0
5.75,1.74,0.06100545984457497,0
5.752083333333333,1.74,0.06112803202922765,0
5.754166666666666,1.74,0.06125067416354692,0
5.75625,1.75,0.0713733838220952,0
5.758333333333334,1.75,0.0714961585769673,0
5.760416666666667,1.76,0.08161899599787348,0
5.7625,1.77,0.09174189365222282,0
5.764583333333333,1.78,0.10186484910520549,0
5.766666666666667,1.79,0.11198785991987797,0
5.76875,1.8,0.12211092365724562,0
5.770833333333333,1.81,0.13223403787635146,0
5.772916666666666,1.82,0.14235720013436212,0
5.775,1.83,0.1524804079866532,0
5.777083333333334,1.84,0.16260365898689857,0
5.779166666666667,1.85,0.1727269506871604,0
5.78125,1.85,0.1728502806379773,0
5.783333333333333,1.86,0.1829736463884561,0
5.785416666666666,1.87,0.19309704548636153,0
5.7875,1.88,0.2032204754782089,0
5.789583333333334,1.88,0.2033439339093579,0
5.791666666666667,1.89,0.21346741832410435,0
5.79375,1.9,0.22359092626577537,0
5.795833333333333,1.9,0.22371445527682374,0
5.797916666666667,1.91,0.2338380028989247,0
5.8,1.92,0.24396156667307323,0
5.802083333333333,1.92,0.24408514413968127,0
5.804166666666666,1.93,0.2542087328386743,0
5.80625,1.93,0.2543323303095899,0
5.808333333333334,1.94,0.2644559340916784,0
5.810416666666667,1.94,0.26457954172400233,0
5.8125,1.94,0.26470315074553874,0
5.814583333333333,1.95,0.27482675869528067,0
5.816666666666666,1.95,0.2749503631123391,0
5.81875,1.95,0.27507396153604435,0
5.820833333333334,1.95,0.27519755150604996,0
5.822916666666667,1.95,0.27532113056243745,0
5.825,1.95,0.27544469624582013,0
5.827083333333333,1.95,0.27556824609744857,0
5.829166666666667,1.94,0.2656917776593166,0
5.83125,1.93,0.2558152884742693,0
5.833333333333333,1.89,0.21593877608610781,0
5.835416666666666,1.89,0.21606223803969674,0
5.8375,1.88,0.20618567188107112,0
5.839583333333334,1.86,0.18630907515754536,0
5.841666666666667,1.85,0.17643244541782072,0
5.84375,1.84,0.1665557802120964,0
5.845833333333333,1.82,0.146679077092178,0
5.847916666666666,1.8,0.12680233361158874,0
5.85,1.78,0.10692554732567873,0
5.852083333333334,1.77,0.09704871579173685,0
5.854166666666667,1.76,0.0871718365690989,0
5.85625,1.74,0.06729490721926029,0
5.858333333333333,1.73,0.0574179253059863,0
5.860416666666667,1.72,0.047540888395423225,0
5.8625,1.7,0.027663794056209626,0
5.864583333333333,1.68,0.007786639859588759,0
5.866666666666666,1.68,0.007909423379517971,0
5.86875,1.66,-0.011967857807218207,0
5.870833333333334,1.65,-0.021845206120897326,0
5.872916666666667,1.63,-0.041722623978747875,0
5.875,1.63,-0.041600113794837024,0
5.877083333333333,1.62,-0.05147767797995878,0
5.879166666666666,1.61,-0.06135531894152296,0
5.88125,1.6,-0.0712330390834443,0
5.883333333333334,1.59,-0.08111084080603137,0
5.885416666666667,1.58,-0.0909887265058742,0
5.8875,1.57,-0.10086669857573508,0
5.889583333333333,1.57,-0.1007447594044382,0
5.891666666666667,1.56,-0.11062291137675956,0
5.89375,1.55,-0.12050115687331767,0
5.895833333333333,1.55,-0.12037949827046315,0
