Frecuencia_Hz,Lomb_Pre,Lomb_Post
0.017278617710583154,0.03215748507271295,0.018247639340961932
0.017375181299758874,0.032451807644878546,0.017700711323716832
0.01747174488893459,0.03274295431701077,0.017155405840857785
0.01756830847811031,0.03303067836083306,0.016611765632064675
0.01766487206728603,0.03331472035819242,0.016070020279375607
0.01776143565646175,0.033594808738938366,0.015530571046847172
0.017857999245637465,0.03387066039732057,0.014993974487427699
0.017954562834813184,0.03414198138579672,0.014460925194863314
0.018051126423988904,0.0344084676846232,0.013932238084796135
0.01814769001316462,0.03466980604504815,0.01340883058198094
0.01824425360234034,0.03492567490334363,0.012891705066703875
0.01834081719151606,0.03517574536231053,0.012381931891645019
0.01843738078069178,0.035419682236270074,0.011880633221164347
0.018533944369867494,0.035657145154929876,0.011388967870960845
0.018630507959043214,0.035887789720891336,0.010908117241766834
0.018727071548218933,0.03611126871495238,0.010439272352191487
0.01882363513739465,0.03632723334277377,0.009983621889866076
0.01892019872657037,0.03653533451592291,0.009542341123742736
0.01901676231574609,0.03673522415979711,0.009116581460325587
0.019113325904921805,0.03692655654047486,0.00870746038824369
0.019209889494097524,0.03710898960215123,0.00831605154280512
0.019306453083273244,0.03728218630649611,0.007943374636958928
0.01940301667244896,0.0374458159650412,0.007590385047331421
0.01949958026162468,0.03759955555555575,0.00725796291148006
0.0195961438508004,0.037743091013324154,0.006946901681060712
0.01969270743997612,0.03787611848829121,0.006657896179348107
0.019789271029151834,0.037998345559197386,0.00639153032324673
0.019885834618327554,0.038109492396088684,0.006148264781416102
0.019982398207503273,0.038209292862951445,0.005928424942835312
0.020078961796678993,0.038297495552690144,0.0057321896556442094
0.02017552538585471,0.03837386474723036,0.005559581256804073
0.02027208897503043,0.038438181296184426,0.005410457442811315
0.020368652564206148,0.03849024340825428,0.005284505526149316
0.020465216153381864,0.03852986735035545,0.005181239579608932
0.020561779742557584,0.03855688805031665,0.005100000892029893
0.020658343331733303,0.03857115959992958,0.005039962048205929
0.02075490692090902,0.03857255565607782,0.005000134809069024
0.02085147051008474,0.038560969738650544,0.004979381814366264
0.02094803409926046,0.038536315424931085,0.004976431968841712
0.021044597688436178,0.03849852644112661,0.004989899214956082
0.021141161277611894,0.0384475566526631,0.005018304250541944
0.021237724866787613,0.0383833799557898,0.005060098627332738
0.021334288455963333,0.038305990073915684,0.005113690572812356
0.021430852045139052,0.03821540026291555,0.0051774718175885805
0.02152741563431477,0.03811164293039495,0.005249844685055776
0.021623979223490488,0.03799476917457495,0.005329248708440626
0.021720542812666208,0.03786484824904725,0.005414186079166285
0.021817106401841924,0.03772196696014995,0.005503245294923624
0.021913669991017643,0.03756622900412171,0.005595122460049143
0.022010233580193363,0.03739775425150415,0.005688639788638632
0.02210679716936908,0.03721667798648007,0.005782760966457724
0.022203360758544798,0.03702315010895807,0.005876603136088688
0.022299924347720518,0.03681733430724639,0.005969445376848554
0.022396487936896234,0.03659940720910468,0.006060733653872575
0.022493051526071953,0.03636955751882435,0.006150082307416789
0.022589615115247673,0.03612798514777625,0.006237272242659319
0.02268617870442339,0.035874900345581474,0.006322246061288477
0.02278274229359911,0.035610522838718274,0.006405100448293191
0.022879305882774828,0.03533508098298135,0.006486076189822113
0.022975869471950548,0.03504881093576377,0.006565546249657166
0.023072433061126267,0.03475195585365576,0.006644002371310944
0.023168996650301983,0.03444476512033976,0.006722040698308734
0.023265560239477703,0.03412749360923244,0.006800346915092995
0.023362123828653422,0.03380040098477672,0.006879681403655506
0.023458687417829138,0.033463751045732036,0.0069608648854502415
0.023555251007004858,0.03311781111325802,0.00704476497418277
0.023651814596180577,0.03276285146603545,0.007132284003548379
0.023748378185356293,0.0323991448241276,0.007224348416871548
0.023844941774532013,0.03202696588276079,0.007321899915943957
0.023941505363707732,0.031646590896694325,0.00742588846814048
0.02403806895288345,0.03125829731536505,0.00753726716874112
0.024134632542059168,0.030862363468529806,0.007656988854192246
0.024231196131234888,0.030459068301695345,0.00778600426665007
0.024327759720410604,0.03004869116021674,0.007925261484958684
0.024424323309586323,0.029631511620569206,0.008075706265956857
0.024520886898762043,0.029207809366950076,0.008238282885548266
0.024617450487937762,0.028777864111049274,0.008413935033231177
0.02471401407711348,0.028341955552540637,0.00860360629778805
0.024810577666289198,0.02790036337758916,0.008808239785765044
0.024907141255464917,0.027453367292440415,0.009028776437679078
0.025003704844640637,0.027001247088963773,0.00926615164845801
0.025100268433816353,0.02654428273884733,0.009521289856799344
0.025196832022992072,0.026082754513005953,0.009795096840867119
0.025293395612167792,0.025616943122647104,0.010088449542541813
0.025389959201343508,0.025147129878353103,0.010402183336410105
0.025486522790519228,0.024673596863479964,0.010737076759525059
0.025583086379694947,0.024196627118135465,0.011093833820006657
0.025679649968870663,0.023716504829991766,0.011473064102819003
0.025776213558046383,0.023233515528203547,0.011875260985436401
0.025872777147222102,0.022747946276741343,0.012300778360598813
0.025969340736397818,0.022260085863515765,0.012749806334337508
0.02606590432557354,0.021770224981754148,0.013222346422069733
0.026162467914749257,0.021278656400205546,0.01371818680201162
0.026259031503924977,0.020785675118881786,0.01423687820298426
0.026355595093100696,0.02029157850720105,0.014777711003901474
0.026452158682276412,0.01979666642158008,0.01533969410729993
0.026548722271452132,0.0193012412997206,0.015921536122917888
0.02664528586062785,0.01880560822905923,0.01652162936411268
0.026741849449803567,0.018310074987088747,0.01713803712470228
0.026838413038979287,0.017814952051521726,0.017768484671141362
0.026934976628155007,0.01732055257854157,0.01841035435833892
0.027031540217330723,0.01682719234768111,0.019060685258835166
0.027128103806506442,0.016335189672173487,0.019716177684402342
0.02722466739568216,0.01584486527393849,0.020373202974095637
0.027321230984857878,0.015356542122695438,0.02102781891879234
0.027417794574033597,0.01487054523902478,0.02167579118284054
0.027514358163209317,0.014387201461540669,0.022312621060701872
0.027610921752385033,0.013906839178671533,0.02293357986190559
0.027707485341560756,0.013429788025882216,0.023533750142994494
0.027804048930736472,0.012956378549500191,0.0241080738934911
0.02790061251991219,0.012486941838625868,0.024651407629602155
0.02799717610908791,0.012021809126914881,0.025158584152981615
0.028093739698263627,0.011561311366309949,0.025624480494956522
0.028190303287439347,0.01110577877506764,0.026044091296180103
0.028286866876615066,0.010655540362674291,0.02641260657929383
0.028383430465790782,0.010210923434463962,0.026725492573640305
0.0284799940549665,0.009772253078943947,0.026978573965604578
0.02857655764414222,0.00933985164099228,0.027168115697141816
0.028673121233317937,0.008914038184218421,0.027290902240290345
0.028769684822493657,0.00849512794587016,0.027344312157272926
0.028866248411669376,0.008083431787725276,0.02732638573084457
0.028962812000845092,0.007679255646422288,0.027235883528994132
0.029059375590020815,0.007282899986669781,0.02707233395598511
0.02915593917919653,0.006894659260714883,0.026836068134003507
0.029252502768372247,0.0065148213773624595,0.026528240844136297
0.02934906635754797,0.006143667183710092,0.026150836712296562
0.029445629946723686,0.005781469962607744,0.0257066613293591
0.029542193535899406,0.005428494948661487,0.025199317515747575
0.029638757125075126,0.005084998865388551,0.02463316744853555
0.02973532071425084,0.0047512294858913515,0.024013281834926233
0.02983188430342656,0.004427425219159601,0.02334537771510791
0.02992844789260228,0.004113814723836188,0.02263574679138101
0.030025011481777997,0.0038106165509934923,0.021891176397930895
0.030121575070953716,0.0035180388171720447,0.021118865343182455
0.030218138660129436,0.003236278908633358,0.020326336878028456
0.030314702249305152,0.0029655232174781287,0.019521350978118895
0.03041126583848087,0.002705946909984315,0.018711817990872473
0.03050782942765659,0.0024577137272320123,0.01790571550437431
0.030604393016832307,0.0022209758178019555,0.017111010062715083
0.03070095660600803,0.001995873602073467,0.016335585096262078
0.030797520195183746,0.0017825356674003117,0.015587176168940002
0.030894083784359462,0.0015810786932173033,0.014873314377685722
0.030990647373535185,0.0013916074049276936,0.014201278478136767
0.0310872109627109,0.0012142145552411377,0.013578056058391958
0.03118377455188662,0.0010489809314788042,0.013010313839837168
0.03128033814106234,0.0008959753872354422,0.012504376949421043
0.031376901730238056,0.0007552548966868242,0.012066216779698194
0.03147346531941378,0.0006268646297607554,0.011701446830264375
0.031570028908589495,0.0005108380463425086,0.011415325707090035
0.03166659249776521,0.0004071970076684275,0.011212766246999382
0.03176315608694093,0.0003159519030681569,0.011098349537735653
0.03185971967611665,0.00023710179024865526,0.011076342426578243
0.031956283265292366,0.00017063454736772178,0.011150716961055417
0.03205284685446809,0.00011652703522303665,0.011325170093785255
0.032149410443643806,7.474526797862027e-05,0.011603141919974599
0.03224597403281952,4.5244590966199895e-05,0.011987830709922511
0.032342537621995245,2.796986422905786e-05,0.012482203057624099
0.03243910121117096,2.2855650620288823e-05,0.013088997595290409
0.03253566480034668,2.982640742261772e-05,0.013810720924189255
0.0326322283895224,4.879668062122164e-05,0.014649634683043642
0.032728791978698116,7.967130113200559e-05,0.015607733011058458
0.03282535556787383,0.0001223455824629595,0.01668671005476245
0.032921919157049555,0.00017670551946367572,0.01788791760432667
0.03301848274622527,0.00024262798799519608,0.01921231341117016
0.033115046335400994,0.0003199809455274341,0.020660401217483408
0.03321160992457671,0.00040862363284182045,0.022232164000998957
0.033308173513752426,0.0005084067771811328,0.02392699238486686
0.03340473710292814,0.0006191727973445288,0.025743610562103527
0.033501300692103865,0.0007407560113715871,0.02768000241605924
0.03359786428127958,0.0008729828475936895,0.029733340762763252
0.033694427870455304,0.0010156720599519787,0.03189992277975306
0.03379099145963102,0.0011686349485879317,0.03417511470391645
0.033887555048806736,0.0013316755868025046,0.03655330876707397
0.03398411863798245,0.00150459105555382,0.03902789508714598
0.034080682227158175,0.0016871716867181861,0.04159125084624495
0.0341772458163339,0.0018792013163760125,0.04423474857403186
0.034273809405509614,0.002080457549399972,0.04694878473251418
0.03437037299468533,0.002290712036620634,0.04972282909244061
0.034466936583861046,0.0025097307658181463,0.05254549463398925
0.03456350017303677,0.0027372743677463525,0.05540462693331929
0.034660063762212485,0.002973098438327088,0.05828741125257147
0.03475662735138821,0.0032169538780679433,0.06118049487494073
0.034853190940563925,0.0034685872496484343,0.0640701216563085
0.03494975452973964,0.0037277411544947405,0.06694227533233099
0.03504631811891536,0.003994154629015957,0.0697828278476942
0.03514288170809108,0.004267563561014333,0.07257768887478509
0.0352394452972668,0.004547701126599657,0.07531295276289178
0.03533600888644252,0.0048342982477472575,0.07797503939558263
0.035432572475618235,0.00512708407042764,0.08055082581209705
0.03552913606479395,0.0054257864630201155,0.08302776593948984
0.03562569965396967,0.005730132534493299,0.08539399635148837
0.03572226324314539,0.006039849171600398,0.08763842658096098
0.03581882683232111,0.00635466359409945,0.08975081312968833
0.03591539042149683,0.006674303926766784,0.09172181690933445
0.036011954010672545,0.006998499786732779,0.09354304438432076
0.03610851759984826,0.00732698288443398,0.0952070731507515
0.036205081189023984,0.007659487636246187,0.09670746306333759
0.0363016447781997,0.007995751786645123,0.0980387543094392
0.03639820836737542,0.008335517037535734,0.09919645402767471
0.03649477195655114,0.008678529682198524,0.10017701318511071
0.036591335545726855,0.009024541241133882,0.10097779547290876
0.03668789913490257,0.009373309096929806,0.10159703996862939
0.036784462724078294,0.009724597125154203,0.10203381925802926
0.03688102631325402,0.010078176318170092,0.10228799462313744
0.03697758990242973,0.010433825398697598,0.10236016979774754
0.03707415349160545,0.010791331419901086,0.10225164467460535
0.037170717080781165,0.011150490348765531,0.10196437022579313
0.03726728066995688,0.011511107629541408,0.10150090577134255
0.037363844259132604,0.011872998724085647,0.10086437960033826
0.03746040784830833,0.01223598962600477,0.10005845381099344
0.037556971437484044,0.012599917345617323,0.09908729408722133
0.03765353502665976,0.01296463036289329,0.09795554496448701
0.037750098615835476,0.013329989045698588,0.09666831095295833
0.0378466622050112,0.013695866030869277,0.09523114367824724
0.037943225794186915,0.014062146565865989,0.09365003496832254
0.03803978938336264,0.01442872880900297,0.09193141556089747
0.038136352972538354,0.014795524086515405,0.09008215883300852
0.03823291656171407,0.015162457105013648,0.08810958867060219
0.038329480150889786,0.01552946611817314,0.08602149031050887
0.03842604374006551,0.01589650304681937,0.08382612271235737
0.03852260732924123,0.016263533551890003,0.08153223076782802
0.03861917091841695,0.016630537060075293,0.07914905544447932
0.038715734507592664,0.016997506742271226,0.0766863398071142
0.03881229809676838,0.017364449445295697,0.07415432877674501
0.038908861685944096,0.017731385577642193,0.071563760489822
0.03900542527511982,0.018098348950351763,0.06892584722024771
0.03910198886429554,0.01846538657438459,0.0662522440318677
0.03919855245347126,0.01883255841615533,0.06355500364306199
0.039295116042646974,0.01919993711316443,0.060846516405307485
0.03939167963182269,0.019567607651907397,0.05813943481521898
0.03948824322099841,0.019935667010470736,0.05544658257848543
0.03958480681017413,0.020304223768432522,0.052780848901183015
0.03968137039934985,0.02067339768686513,0.05015506936957725
0.03977793398852557,0.02104331926140126,0.04758189545901279
0.039874497577701284,0.02141412925145554,0.04507365534789321
0.039971061166877,0.021785978188806034,0.04264220926568032
0.040067624756052724,0.022159025868824764,0.04029880303804165
0.040164188345228446,0.02253344082770918,0.038053923777184986
0.04026075193440416,0.022909399809101266,0.03591716177851405
0.04035731552357988,0.023287087223499443,0.033897082614338325
0.040453879112755595,0.023666694603859575,0.03200111316159897
0.04055044270193131,0.02404842006075537,0.030235444876133152
0.040647006291107034,0.024432467740420426,0.028604957054976097
0.04074356988028276,0.02481904728893407,0.027113162144360606
0.04084013346945847,0.025208373325727042,0.025762174394828027
0.04093669705863419,0.025600664929493713,0.024552702379848624
0.041033260647809905,0.02599614513948416,0.023484065123770523
0.04112982423698563,0.02639504047503202,0.022554230868044818
0.041226387826161344,0.026797580476041485,0.02175987687403788
0.04132295141533707,0.027203997267017034,0.0210964681401014
0.04141951500451278,0.02761452514707029,0.02055835251391175
0.0415160785936885,0.02802940020818461,0.02013886941271622
0.041612642182864215,0.02844885998385588,0.01983046921957882
0.04170920577203994,0.028873143130059897,0.019624840391462037
0.04180576936121566,0.02930248914033078,0.019513041378554037
0.04190233295039138,0.02973713809655484,0.019485634594513024
0.04199889653956709,0.030177330456910893,0.019532819874663356
0.04209546012874281,0.030623306882204628,0.019644565095461388
0.042192023717918525,0.03107530810166337,0.019810731888375926
0.04228858730709425,0.0315335748190715,0.020021194652964605
0.04238515089626997,0.03199834765993744,0.020265951349515584
0.04248171448544569,0.03246986716019407,0.020535224826954697
0.0425782780746214,0.032948373796742515,0.02081955371542729
0.04267484166379712,0.03343410805995137,0.02110987218563537
0.04277140525297284,0.033927310568029445,0.021397578149920028
0.04286796884214856,0.03442822222298529,0.021674589754115126
0.04296453243132428,0.03493708440768999,0.021933390283876125
0.0430610960205,0.03545413922334944,0.02216706188194515
0.043157659609675714,0.03597962976648654,0.02236930873869409
0.04325422319885143,0.036513800444323986,0.022534470670014697
0.04335078678802715,0.03705689732724667,0.022657528225030362
0.043447350377202876,0.03760916853680731,0.022734100660878047
0.04354391396637859,0.03817086466752453,0.022760438272472653
0.04364047755555431,0.03874223924051015,0.022733410662077774
0.043737041144730024,0.03932354918673981,0.022650492568858278
0.04383360473390574,0.03991505535757549,0.02250974884724043
0.04393016832308146,0.04051702305992861,0.02230982008292367
0.044026731912257186,0.041129722613246066,0.022049910168405542
0.0441232955014329,0.04175342992529864,0.021729776931033278
0.04421985909060862,0.04238842708354684,0.021349726624323797
0.044316422679784334,0.04303500295867135,0.02091061276887476
0.04441298626896006,0.04369345381667072,0.020413839476155198
0.04450954985813577,0.044364083935755395,0.019861369021976143
0.044606113447311496,0.045047206224108426,0.019255733072595472
0.04470267703648721,0.04574314283443273,0.01860004662162742
0.04479924062566293,0.0464522257710777,0.017898023386275115
0.044895804214838644,0.04717479748542148,0.01715399115201531
0.04499236780401437,0.04791121145508795,0.016372905359299705
0.04508893139319009,0.0486618327425077,0.015560359105421957
0.045185494982365806,0.0494270385282751,0.014722587697938905
0.04528205857154152,0.05020721861472275,0.013866465947882635
0.04537862216071724,0.05100277589513404,0.012999496532378516
0.045475185749892955,0.05181412678402793,0.01212978798356245
0.04557174933906868,0.052641701603999225,0.011266021165528134
0.0456683129282444,0.05348594492466743,0.01041740347040048
0.04576487651742012,0.05434731584938829,0.009593610381317114
0.04586144010659583,0.05522628824550263,0.00880471449350939
0.04595800369577155,0.056123350914053696,0.008061102532112709
0.04605456728494727,0.057039007695075306,0.007373381333489226
0.04615113087412299,0.05797377750476424,0.006752274143556822
0.04624769446329871,0.05892819430106475,0.006208508912559829
0.04634425805247443,0.05990280697445256,0.005752700515986688
0.04644082164165014,0.060898179160967694,0.005395228996610354
0.04653738523082586,0.06191488897484035,0.00514611599986043
0.04663394882000158,0.06295352865835278,0.005014901567226117
0.046730512409177305,0.06401470414691099,0.005010523369256589
0.04682707599835302,0.0650990345476247,0.005141200314796384
0.04692363958752874,0.06620715153004487,0.00541432228337282
0.04702020317670445,0.0673396986280606,0.005836347511549484
0.04711676676588017,0.06849733045230973,0.006412708939518782
0.04721333035505589,0.06968071181282955,0.007147730607051531
0.047309893944231615,0.07089051675202726,0.008044554990423978
0.04740645753340733,0.07212742748841612,0.0091050820019615
0.04750302112258305,0.07339213327192437,0.010329920234328924
0.04759958471175876,0.07468532915192744,0.01171835092090764
0.047696148300934486,0.07600771465951231,0.01326830499560738
0.0477927118901102,0.0773599924058086,0.014976353561258003
0.047889275479285925,0.07874286659855886,0.01683771200443247
0.04798583906846164,0.08015704147940499,0.018846257914934345
0.04808240265763736,0.08160321968468527,0.020994562870052573
0.048178966246813074,0.08308210053281495,0.02327393801919093
0.0482755298359888,0.08459437824161507,0.025674493249218847
0.04837209342516452,0.08614074007920756,0.02818520952448584
0.048468657014340236,0.08772186445235913,0.030794023781890445
0.04856522060351595,0.08933841893639191,0.03348792552882199
0.04866178419269167,0.09099105825100343,0.03625306405174081
0.048758347781867384,0.09268042218656602,0.0390748649097189
0.048854911371043114,0.09440713348567514,0.04193815417551265
0.04895147496021883,0.09617179568491387,0.044827288711490554
0.049048038549394546,0.09797499092199755,0.047726290641933754
0.04914460213857026,0.09981727771363413,0.050618984116571036
0.04924116572774598,0.1016991887096138,0.05348913245830196
0.049337729316921694,0.10362122842882074,0.056320573851559336
0.049434292906097424,0.10558387098300705,0.05909735385237381
0.04953085649527314,0.10758755779434476,0.06180385317804248
0.049627420084448856,0.10963269531292659,0.06442490945051794
0.04972398367362457,0.1117196527405304,0.06694593180786626
0.04982054726280029,0.11384875976713062,0.06935300754560547
0.049917110851976004,0.11602030432677908,0.07163300018804818
0.050013674441151734,0.11823453037962245,0.07377363860411133
0.05011023803032745,0.12049163572697738,0.07576359696068911
0.050206801619503166,0.1227917698665115,0.07759256544170247
0.05030336520867888,0.12513503189471445,0.07925131174891191
0.0503999287978546,0.12752146846397758,0.080731733442784
0.05049649238703033,0.12995107180170443,0.08202690118356433
0.050593055976206044,0.1324237777989914,0.08313109290353803
0.05068961956538176,0.13493946417651195,0.08403981889306189
0.05078618315455748,0.13749794873530718,0.0847498377287274
0.05088274674373319,0.14009898770025486,0.0852591629255658
0.05097931033290891,0.14274227416402993,0.08556706016892163
0.05107587392208464,0.1454274366393708,0.08567403498572698
0.051172437511260355,0.14815403772747532,0.08558181075627189
0.05126900110043607,0.15092157291029212,0.08529329704924463
0.05136556468961179,0.15372946947439592,0.08481254838357229
0.0514621282787875,0.15657708557403835,0.08414471367523901
0.05155869186796322,0.15946370944079247,0.0832959768068552
0.05165525545713895,0.16238855874703395,0.08227348895068899
0.051751819046314665,0.165350780130229,0.08108529346874802
0.05184838263549038,0.16834944888475165,0.07974024439244878
0.0519449462246661,0.17138356882756398,0.07824791963631292
0.05204150981384181,0.17445207234373297,0.07661853021376727
0.05213807340301754,0.1775538206172895,0.07486282679018808
0.05223463699219326,0.18068760405243964,0.07299200492401814
0.052331200581368975,0.18385214288957538,0.07101761031021675
0.05242776417054469,0.18704608801991213,0.06895144525445854
0.05252432775972041,0.19026802200191578,0.06680547747781662
0.05262089134889612,0.19351646028195316,0.06459175218951974
0.05271745493807185,0.19678985262082685,0.062322308181062866
0.05281401852724757,0.20008658472702348,0.06000909850085757
0.052910582116423285,0.20340498009664293,0.05766391607709637
0.053007145705599,0.20674330205906122,0.0552983244790584
0.05310370929477472,0.21009975602641698,0.052923593853401604
0.05320027288395045,0.21347249194406367,0.05055064194943294
0.05329683647312616,0.21685960693808334,0.048189980060505566
0.05339340006230188,0.22025914815497818,0.04585166365915708
0.053489963651477596,0.22366911578758072,0.043545247490141215
0.05358652724065331,0.2270874662802176,0.041279744904152656
0.05368309082982903,0.23051211570511068,0.03906359125981391
0.05377965441900476,0.23394094330099138,0.03690461128465128
0.053876218008180474,0.2373717951638958,0.03480999035891042
0.05397278159735619,0.24080248807914809,0.03278624976038064
0.054069345186531906,0.24423081348261494,0.03083922597590205
0.05416590877570762,0.24765454153842223,0.02897405423892431
0.05426247236488334,0.2510714253195247,0.027195156487216297
0.05435903595405907,0.25447920507673744,0.025506233947431206
0.054455599543234784,0.2578756125811768,0.023910264542739194
0.0545521631324105,0.2612583755244451,0.02240950528734745
0.054648726721586216,0.2646252219603743,0.021005499780525103
0.05474529031076193,0.2679738847717291,0.019699090847253194
0.05484185389993766,0.2713021061449526,0.01849043829833696
0.05493841748911338,0.27460764203578447,0.01737904170555067
0.055034981078289094,0.2778882666085214,0.016363768012658764
0.05513154466746481,0.2811417766316215,0.015442883735720225
0.055228108256640526,0.28436599581250704,0.014614091449389856
0.05532467184581624,0.287558779054606,0.013874570211954526
0.05542123543499197,0.2907180166200031,0.013221019550928718
0.05551779902416769,0.2938416381814948,0.01264970661195652
0.055614362613343404,0.2969276167483949,0.012156516064025243
0.05571092620251912,0.29997397245103585,0.01173700235011806
0.055807489791694836,0.3029787761696646,0.011386443870456744
0.05590405338087055,0.3059401529942512,0.011099898681482468
0.05600061697004628,0.30885628550259453,0.010872261284238852
0.056097180559222,0.31172541684511407,0.010698320058347803
0.056193744148397715,0.3145458536257432,0.010572814871095586
0.05629030773757343,0.3173159685694164,0.010490494355527631
0.05638687132674915,0.32003420296781665,0.01044617230872937
0.05648343491592488,0.3226990688962011,0.010434782614944278
0.05657999850510059,0.3253091511953415,0.010451432052376223
0.05667656209427631,0.3278631092138506,0.010491450302815704
0.056773125683452025,0.3303596783073806,0.01055043645534459
0.05686968927262774,0.33279767109243646,0.010624301284882447
0.05696625286180346,0.33517597845374986,0.010709304598055932
0.05706281645097919,0.3374935703053737,0.010802086976413177
0.0571593800401549,0.33974949610683747,0.010899695312334551
0.05725594362933062,0.34194288513682297,0.010999601626194695
0.057352507218506335,0.3440729465279406,0.011099714772513354
0.05744907080768205,0.3461389690672112,0.011198384784221721
0.05754563439685777,0.3481403207678538,0.011294399762396068
0.0576421979860335,0.3500764482189221,0.011386975387292443
0.05773876157520921,0.35194687572015726,0.01147573729802968
0.05783532516438493,0.35375120421026346,0.01156069675544401
0.057931888753560645,0.3554891099974874,0.01164222015854253
0.05802845234273636,0.35716034330206425,0.011720993123570889
0.05812501593191209,0.3587647266206365,0.011797979951153777
0.05822157952108781,0.3603021529232595,0.011874379397893034
0.05831814311026352,0.36177258369402887,0.011951577732323918
0.05841470669943924,0.36317604682668403,0.012031100090745608
0.058511270288614955,0.3645126343868548,0.012114561156880324
0.05860783387779067,0.3657825002527649,0.012203616172218644
0.0587043974669664,0.3669858576463857,0.012299913243567221
0.05880096105614212,0.36812297656706555,0.012405047853338314
0.058897524645317834,0.3691941811396697,0.012520520399238847
0.05899408823449355,0.3701998468892256,0.012647697495861478
0.059090651823669266,0.37114039795393605,0.012787777663755606
0.05918721541284498,0.37201630424827453,0.01294176191417673
0.05928377900202071,0.37282807858766964,0.013110429612129134
0.05938034259119643,0.3735762737860301,0.013294319868788547
0.059476906180372144,0.37426147973708324,0.013493718579357609
0.05957346976954786,0.3748843204901713,0.01370865108655476
0.059670033358723576,0.37544545133080376,0.013938880316359627
0.059766596947899306,0.3759455558758903,0.014183910104753563
0.05986316053707502,0.37638534319317596,0.01444299331575515
0.05995972412625074,0.3767655449539888,0.014715144245961112
0.060056287715426454,0.3770869126279811,0.014999154722908154
0.06015285130460217,0.3773502147280928,0.015293613237398
0.060249414893777886,0.3775562341135333,0.015596926406391912
0.060345978482953616,0.3777057653580968,0.015907342045219694
0.06044254207212933,0.37779961219068764,0.016222973136580273
0.06053910566130505,0.37783858501445555,0.01654182201880698
0.060635669250480764,0.3778234985104762,0.016861804175454766
0.06073223283965648,0.37775516933146586,0.01718077108949932
0.060828796428832196,0.3776344138905391,0.01749653172424215
0.060925360018007926,0.3774620462495851,0.017806872304392724
0.06102192360718364,0.3772388761113738,0.018109574189171463
0.06111848719635936,0.3769657069190682,0.018402429748770793
0.061215050785535075,0.37664333406637995,0.018683256270334618
0.06131161437471079,0.3762725432211726,0.01894990802438736
0.06140817796388652,0.375854108764907,0.019200286712624783
0.06150474155306224,0.3753887923498843,0.019432350589380445
0.06160130514223795,0.3748773415758714,0.01964412259914003
0.06169786873141367,0.3743204887872565,0.019833697899609117
0.061794432320589385,0.37371894999152844,0.019999251143607066
0.0618909959097651,0.37307342389946,0.020139043874209075
0.06198755949894083,0.3723845910870319,0.020251432347823225
0.06208412308811655,0.3716531132787485,0.020334876042009602
0.06218068667729226,0.3708796327516503,0.02038794703224472
0.06227725026646798,0.3700647718589893,0.02040934033858071
0.062373813855643695,0.3692091326721788,0.020397885253638868
0.06247037744481941,0.3683132967393249,0.020352557572193775
0.06256694103399514,0.3673778249583154,0.020272492554268374
0.06266350462317086,0.3664032575621458,0.02015699837240729
0.06276006821234657,0.3653901142138573,0.020005569723402578
0.06285663180152229,0.3643388942081994,0.019817901228347475
0.062953195390698,0.3632500767768316,0.019593900204823624
0.06304975897987374,0.3621241214936525,0.019333698372779276
0.06314632256904945,0.3609614687765729,0.019037662051774377
0.06324288615822517,0.3597625404818396,0.018706400421446397
0.06333944974740088,0.35852774058679404,0.018340771448128998
0.0634360133365766,0.3572574559567446,0.017941885126689112
0.06353257692575232,0.3559520571914641,0.017511103745459736
0.06362914051492805,0.35461189954663386,0.01705003895088501
0.06372570410410376,0.35323732392542556,0.016560545464244826
0.06382226769327948,0.3518286579352604,0.016044711382677143
0.0639188312824552,0.3503862170046866,0.015504845077906955
0.06401539487163091,0.3489103055551958,0.014943458786119312
0.06411195846080663,0.3474012182227416,0.014363249059139131
0.06420852204998236,0.34585924112363536,0.013767074318685258
0.06430508563915807,0.34428465315946927,0.013157929820532795
0.06440164922833379,0.3426777273556708,0.012538920392790524
0.0644982128175095,0.3410387322282949,0.01191323136131354
0.06459477640668522,0.33936793317365616,0.01128409811481566
0.06469133999586095,0.3376655938754245,0.010654774791955124
0.06478790358503667,0.3359319777238509,0.010028502592059644
0.06488446717421238,0.3341673492418308,0.009408478219825803
0.0649810307633881,0.3323719755125865,0.00879782297196167
0.06507759435256381,0.33054612760382435,0.008199552960145722
0.06517415794173953,0.32869008198331,0.007616550939868706
0.06527072153091526,0.3268041219209081,0.007051540178951473
0.06536728512009098,0.3248885388722509,0.006507060753401295
0.06546384870926669,0.3229436338393038,0.005985448602729113
0.06556041229844241,0.32096971870324326,0.005488817613295519
0.06565697588761812,0.31896711752518286,0.0050190449284583435
0.06575353947679384,0.31693616781043676,0.004577759610399599
0.06585010306596957,0.314877221732144,0.004166334702958617
0.06594666665514529,0.31279064731024175,0.003785882670168022
0.066043230244321,0.3106768295419121,0.003437254114127831
0.06613979383349672,0.3085361714798052,0.0031210396108621273
0.06623635742267243,0.3063690952544792,0.0028375744461233768
0.06633292101184816,0.30417604303767687,0.002586945986580982
0.06642948460102388,0.30195747794320266,0.00236900338676624
0.0665260481901996,0.29971388486233813,0.0021833693092646865
0.06662261177937531,0.29744577123089083,0.0020294533250565377
0.06671917536855103,0.2951536677251429,0.0019064666620713252
0.06681573895772674,0.2928381288841078,0.0018134379818736386
0.06691230254690247,0.2904997336556983,0.0017492298853619876
0.06700886613607819,0.2881390858645521,0.001712555876533222
0.0671054297252539,0.28575681459942104,0.001701997546589131
0.06720199331442962,0.2833535745182342,0.001716021776724889
0.06729855690360534,0.2809300460690668,0.0017529977946694711
0.06739512049278105,0.27848693562545407,0.0018112139554660612
0.06749168408195678,0.27602497553465394,0.001888894149391921
0.0675882476711325,0.2735449240776393,0.0019842137679948837
0.06768481126030822,0.2710475653397805,0.002095315182054619
0.06778137484948393,0.268533708991395,0.002220322702380863
0.06787793843865965,0.2660041899774919,0.0023573570056733195
0.06797450202783538,0.2634598681162898,0.002504549013502694
0.0680710656170111,0.2609016276062622,0.002660053213456486
0.06816762920618681,0.2583303764416893,0.0028220604084939704
0.06826419279536253,0.25574704573694174,0.0029888098745824905
0.06836075638453824,0.2531525889599275,0.003158600898825262
0.06845731997371396,0.25054798107539555,0.0033298036615925924
0.06855388356288969,0.24793421759903775,0.003500869417605656
0.0686504471520654,0.24531231356358957,0.0036703399233209834
0.06874701074124112,0.24268330239840727,0.003836856051972806
0.06884357433041684,0.2400482347242744,0.003999165533706176
0.06894013791959255,0.23740817706547335,0.004156129756653174
0.06903670150876827,0.23476421048146126,0.004306729565662453
0.069133265097944,0.2321174291207837,0.004450069998666356
0.06922982868711972,0.2294689387001695,0.0045853839062332475
0.06932639227629543,0.22681985491204798,0.004712034407517386
0.06942295586547115,0.2241713017640667,0.004829516145383703
0.06951951945464686,0.221524409854465,0.004937455314748405
0.0696160830438226,0.21888031458751084,0.0050356084509533315
0.06971264663299831,0.21624015433348098,0.0051238599791254575
0.06980921022217403,0.21360506853798616,0.005202218540809044
0.06990577381134974,0.21097619578574875,0.005270812130545672
0.07000233740052546,0.20835467182419196,0.005329882092321881
0.07009890098970117,0.20574162755252356,0.005379776043658404
0.0701954645788769,0.20313818698220257,0.00542093981324227
0.07029202816805262,0.20054546517497807,0.005453908495967874
0.07038859175722834,0.19796456616485789,0.005479296746516485
0.07048515534640405,0.19539658087060216,0.005497788448526835
0.07058171893557977,0.192842585005514,0.005510125910295618
0.07067828252475548,0.19030363699142538,0.005517098749063703
0.07077484611393121,0.18778077588392467,0.0055195326335874635
0.07087140970310693,0.18527501931595852,0.005518278058253547
0.07096797329228265,0.18278736146699337,0.005514199320987596
0.07106453688145836,0.1803187710649481,0.005508163871365876
0.07116110047063408,0.17787018942812197,0.00550103218462214
0.07125766405980981,0.1754425285542662,0.00549364830188042
0.07135422764898552,0.17303666926388586,0.005486831157421552
0.07145079123816124,0.17065345940473736,0.005481366790849187
0.07154735482733696,0.16829371212432434,0.00547800151658001
0.07164391841651267,0.1659582042170075,0.005477436096231493
0.07174048200568839,0.16364767455210213,0.005480320932351705
0.07183704559486412,0.161362822589094,0.005487252275678331
0.07193360918403983,0.15910430698576783,0.005498769413780547
0.07203017277321555,0.15687274430474,0.005515352787445804
0.07212673636239127,0.15466870782350567,0.0055374229632407495
0.07222329995156698,0.15249272645270928,0.005565340376784538
0.07231986354074271,0.15034528376694284,0.00559940575166921
0.07241642712991843,0.1482268171519108,0.005639861093638924
0.07251299071909414,0.1461377170713369,0.005686891158379921
0.07260955430826986,0.14407832645651122,0.005740625293663417
0.07270611789744558,0.14204894022085524,0.005801139562071423
0.07280268148662129,0.14004980490137925,0.005868459058475041
0.07289924507579702,0.13808111842838738,0.00594256034612782
0.07299580866497274,0.13614303002423742,0.006023373945995033
0.07309237225414845,0.13423564023145246,0.0061107868251123335
0.07318893584332417,0.13235900106994314,0.0062046448407783875
0.07328549943249989,0.13051311632258403,0.006304755107771814
0.0733820630216756,0.12869794194785608,0.00641088826517884
0.07347862661085133,0.12691338661778048,0.006522780627605975
0.07357519020002705,0.1251593123788854,0.00664013621240945
0.07367175378920277,0.12343553543345119,0.006762628640113133
0.07376831737837848,0.12174182703786,0.006889902909490157
0.0738648809675542,0.12007791451443177,0.0070215770520301824
0.07396144455672993,0.11844348237272789,0.007157243672904903
0.07405800814590564,0.11683817353593513,0.007296471387321862
0.07415457173508136,0.11526159066758761,0.00743880616254672
0.07425113532425708,0.11371329759358184,0.007583772577087334
0.07434769891343279,0.11219282081413107,0.007730875009723575
0.07444426250260851,0.11069965110008176,0.007879598772350171
0.07454082609178424,0.10923324516776042,0.008029411202007987
0.07463738968095995,0.1077930274263611,0.008179762729002529
0.07473395327013567,0.10637839179169706,0.008330087939566815
0.07483051685931139,0.10498870356004575,0.008479806653000677
0.0749270804484871,0.10362330133568988,0.008628325034469642
0.07502364403766282,0.1022814990057255,0.00877503676551229
0.07512020762683855,0.10096258775565435,0.008919324294649702
0.07521677121601426,0.09966583811927528,0.009060560190201126
0.07531333480518998,0.09839050205642534,0.009198108616423267
0.0754098983943657,0.09713581505215335,0.009331326952406573
0.07550646198354141,0.09590099823099499,0.00945956757084402
0.07560302557271714,0.09468526048009959,0.009582179790975762
0.07569958916189286,0.09348780057509147,0.009698512016898645
0.07579615275106857,0.09230780930267396,0.00980791406926884
0.07589271634024429,0.09114447157413892,0.009909739715490319
0.07598927992942,0.08999696852411837,0.010003349401062402
0.07608584351859572,0.08886447958909295,0.010088113183116929
0.07618240710777145,0.08774618456037463,0.010163413866519712
0.07627897069694717,0.0866412656064838,0.01022865034336461
0.07637553428612288,0.08554890926005407,0.01028324113828175
0.0764720978752986,0.08446830836463824,0.010326628164585957
0.07656866146447432,0.08339866397699582,0.010358280699669887
0.07666522505365003,0.08233918722071296,0.01037769959179642
0.07676178864282576,0.08128910108720722,0.010384421714037412
0.07685835223200148,0.08024764218045256,0.010378024683918317
0.0769549158211772,0.07921406240198423,0.010358131868637231
0.07705147941035291,0.07818763057299594,0.010324417694812193
0.07714804299952863,0.0771676339906031,0.010276613277849168
0.07724460658870436,0.07615337991558002,0.01021451237860369
0.07734117017788007,0.0751441969891412,0.010137977683538338
0.07743773376705579,0.07413943657658047,0.010046947388783744
0.0775342973562315,0.07313847403583726,0.009941442048358165
0.07763086094540722,0.0721407099092885,0.009821571622559203
0.07772742453458294,0.07114557103734297,0.009687542634773767
0.07782398812375867,0.07015251159261729,0.009539665314588127
0.07792055171293438,0.06916101403374746,0.009378360573313684
0.0780171153021101,0.06817058997811982,0.00920416662641102
0.07811367889128581,0.06718078099302477,0.009017745047518766
0.07821024248046153,0.06619115930500478,0.008819886012794022
0.07830680606963725,0.06520132842736495,0.008611512474012458
0.07840336965881298,0.06421092370606607,0.0083936829862963
0.07849993324798869,0.06321961278443934,0.008167592913193815
0.07859649683716441,0.06222709598737439,0.007934573739607969
0.07869306042634013,0.06123310662586677,0.007696090242802803
0.07878962401551584,0.06023741122301435,0.007453735303931439
0.07888618760469157,0.05923980966275767,0.007209222187124608
0.07898275119386729,0.05824013526287306,0.006964374169375759
0.079079314783043,0.05723825477392611,0.006721111470786146
0.07917587837221872,0.056234068306068447,0.006481435509081049
0.07927244196139444,0.05522750918577152,0.00624741058197889
0.07936900555057015,0.05421854374475024,0.0060211431628863915
0.07946556913974588,0.05320717104350089,0.005804759076124294
0.0795621327289216,0.052193422532053585,0.005600378894038438
0.07965869631809731,0.05117736165067131,0.005410091966644613
0.07975525990727303,0.05015908337338037,0.0052359295519781085
0.07985182349644876,0.04913871369734271,0.0050798375596772345
0.07994838708562448,0.0481164090812055,0.0049436494497993215
0.08004495067480019,0.047092355835650745,0.004829059842440579
0.08014151426397591,0.046066769469482606,0.004737599391159735
0.08023807785315162,0.045039893994648736,0.0046706114549317735
0.08033464144232734,0.04401200119366502,0.004629231070430729
0.08043120503150307,0.04298338985295724,0.004614366680380107
0.08052776862067879,0.04195438496566567,0.00462668501635568
0.0806243322098545,0.04092533690746951,0.004666599467776513
0.08072089579903022,0.03989662058900222,0.004734262194915606
0.08081745938820593,0.03886863458838595,0.004829560164554963
0.08091402297738165,0.037841800267405204,0.004952115204226043
0.08101058656655738,0.0368165608747686,0.005101288086478398
0.0811071501557331,0.035793380639856376,0.005276186569834947
0.08120371374490881,0.03477274386024177,0.0054756772394766885
0.08130027733408453,0.03375515398621254,0.005698400909679818
0.08139684092326024,0.032741132705358424,0.005942791273129315
0.08149340451243597,0.03173121903019527,0.006207096411072765
0.08158996810161169,0.03072596839163155,0.0064894027146655785
0.0816865316907874,0.029725951740927636,0.006787660713735433
0.08178309527996312,0.028731754662633884,0.00709971226661082
0.08187965886913884,0.02774397650080081,0.007423318535650225
0.08197622245831455,0.026763229500570206,0.007756188159568302
0.08207278604749028,0.025790137967048977,0.008096005037156231
0.082169349636666,0.024825337443159144,0.008440455158587386
0.08226591322584172,0.02386947390794377,0.008787251960584724
0.08236247681501743,0.022923202996581193,0.009134159739860415
0.08245904040419315,0.021987189243146087,0.009479014734069605
0.08255560399336886,0.02106210534692045,0.009819743568759443
0.0826521675825446,0.020148631462828463,0.010154378869247067
0.08274873117172031,0.019247454516359876,0.010481071944052614
0.08284529476089603,0.01835926754309957,0.010798102556881515
0.08294185835007174,0.017484769052782716,0.011103885912262614
0.08303842193924746,0.016624662417568072,0.01139697708081313
0.08313498552842319,0.01577965528401751,0.011676073178897042
0.0832315491175989,0.014950459008077628,0.011940013689861164
0.08332811270677462,0.014137788112158434,0.012187779366477318
0.08342467629595034,0.013342359763234054,0.012418490184007824
0.08352123988512605,0.01256489327072273,0.012631402818876552
0.08361780347430177,0.01180610960274173,0.012825908108811715
0.0837143670634775,0.01106673091920184,0.013001528907279044
0.08381093065265321,0.010347480120075336,0.013157918679923218
0.08390749424182893,0.009649080407059996,0.013294861106505296
0.08400405783100465,0.008972254856768818,0.013412270852300937
0.08410062142018036,0.008317726003500081,0.01351019556269407
0.08419718500935608,0.007686215429573925,0.013588819018882628
0.08429374859853181,0.007078443361185698,0.01364846527665778
0.08439031218770753,0.006495128267694301,0.013689603499665503
0.08448687577688324,0.005936986462258352,0.013712853098802241
0.08458343936605896,0.00540473170173895,0.013718988705439234
0.08468000295523467,0.004899074783817013,0.013708944442407668
0.0847765665444104,0.004420723139311196,0.013683816916683317
0.08487313013358612,0.003970380417747016,0.013644866344055876
0.08496969372276184,0.003548746064300316,0.01359351523020948
0.08506625731193755,0.0031565148863306755,0.013531344074815833
0.08516282090111327,0.002794376607826844,0.013460083634467213
0.08525938449028898,0.0024630154102062525,0.013381603374380515
0.08535594807946471,0.0021631094580455367,0.01329789585454998
0.08545251166864043,0.0018953304084634067,0.01321105692924366
0.08554907525781615,0.0016603429030362948,0.013123261784551128
0.08564563884699186,0.0014588040412958213,0.013036736991737368
0.08574220243616758,0.0012913628350308662,0.012953728908805272
0.0858387660253433,0.0011586596428055061,0.012876468913298335
0.08593532961451902,0.0010613255842933417,0.012807136090506746
0.08603189320369474,0.0009999819342261895,0.012747818127794259
0.08612845679287046,0.0009752394959552625,0.012700471273115552
0.08622502038204617,0.000987697954827024,0.012666880299938399
0.08632158397122189,0.0010379452117787696,0.012648619478366785
0.08641814756039762,0.0011265566977639772,0.012647015580633015
0.08651471114957333,0.0012540946698187563,0.012663113946422548
0.08661127473874905,0.00142110748977958,0.012697648598617278
0.08670783832792477,0.0016281288868566478,0.012751017332815202
0.08680440191710048,0.0018756772054553852,0.012823262605092397
0.0869009655062762,0.0021642546398171524,0.012914058913699313
0.08699752909545193,0.002494346457225575,0.013022707214508792
0.08709409268462764,0.0028664202116819933,0.013148136731040122
0.08719065627380336,0.0032809249501061285,0.013288914322827597
0.08728721986297908,0.003738290413255686,0.01344326136694026
0.08738378345215479,0.004238926233681966,0.013609077893660698
0.08748034704133052,0.004783221133146548,0.013783973506435253
0.08757691063050624,0.005371542122022634,0.013965304416341206
0.08767347421968195,0.006004233703278816,0.014150215740546994
0.08777003780885767,0.00668161708370315,0.014335688060155156
0.08786660139803339,0.0074039893950757505,0.014518587112056574
0.0879631649872091,0.008171622928017094,0.014695715407237566
0.08805972857638483,0.008984764381253264,0.014863864527864147
0.08815629216556055,0.00984363412902418,0.015019866858914854
0.08825285575473626,0.010748425509343828,0.015160645556503006
0.08834941934391198,0.011699304135760997,0.015283261641579988
0.0884459829330877,0.012696407235222786,0.015384957229800364
0.08854254652226341,0.013739843014553195,0.015463194059699904
0.08863911011143914,0.01482969005796784,0.015515686654599063
0.08873567370061486,0.015965996757934958,0.015540429640668516
0.08883223728979057,0.017148780781566345,0.01553571893615996
0.08892880087896629,0.01837802857458801,0.015500166716916447
0.08902536446814201,0.019653694904779324,0.015432710243745172
0.08912192805731774,0.020975702446617606,0.015332614801867503
0.08921849164649345,0.022343941408690355,0.01519947114657573
0.08931505523566917,0.023758269205254565,0.01503318796889482
0.08941161882484489,0.02521851017313413,0.014833979988320018
0.0895081824140206,0.02672445533496788,0.014602352345715967
0.08960474600319632,0.028275862209598615,0.014339082008468873
0.08970130959237205,0.029872454670229,0.014045196913182262
0.08979787318154776,0.03151392285074082,0.01372195356050953
0.08989443677072348,0.03319992310039551,0.01337081374457955
0.0899910003598992,0.03493007798693315,0.01299342104869145
0.09008756394907491,0.03670397634789684,0.012591577672558571
0.09018412753825063,0.03852117338982129,0.012167222077505164
0.09028069112742636,0.04038119083475243,0.011722407847831837
0.09037725471660207,0.04228351711338594,0.011259284072251468
0.09047381830577779,0.04422760760396692,0.010780077451986239
0.0905703818949535,0.04621288491591731,0.010287076244901652
0.09066694548412922,0.04823873921704934,0.009782616060894754
0.09076350907330495,0.050304528603075514,0.009269067435535853
0.09086007266248067,0.052409579508010146,0.008748825029295694
0.09095663625165638,0.05455318715398223,0.008224298230990088
0.0910531998408321,0.05673461603886286,0.007697902888372948
0.09114976343000782,0.05895310046005203,0.007172053847721113
0.09124632701918353,0.06120784507272014,0.006649157958930857
0.09134289060835926,0.06349802548073717,0.006131607193680583
0.09143945419753498,0.0658227888585118,0.005621771531656818
0.0915360177867107,0.06818125460192788,0.00512199129316537
0.09163258137588641,0.07057251500658573,0.004634568634634871
0.09172914496506213,0.07299563597154031,0.004161757975017916
0.09182570855423784,0.0754496577267761,0.003705755183992069
0.09192227214341357,0.0779335955826761,0.0032686854348669687
0.09201883573258929,0.08044644069978503,0.002852589703689951
0.092115399321765,0.08298716087723876,0.0024594099784591727
0.09221196291094072,0.08555470135826834,0.0020909733257634417
0.09230852650011644,0.08814798565128273,0.0017489750436138897
0.09240509008929217,0.09076591636508437,0.001434961205787776
0.09250165367846788,0.0934073760568759,0.0011503109717326653
0.0925982172676436,0.09607122809178627,0.0008962190941912163
0.09269478085681931,0.09875631751273099,0.0006736791015457496
0.09279134444599503,0.10146147191952286,0.0004834676610939524
0.09288790803517075,0.10418550235622376,0.0003261306410566205
0.09298447162434648,0.10692720420582091,0.00020197138161485566
0.09308103521352219,0.10968535809140133,0.0001110416578188944
0.09317759880269791,0.11245873078308134,5.31357697300104e-05
0.09327416239187362,0.1152460761100043,2.778812842336006e-05
0.09337072598104934,0.11804613587683345,3.427462219691784e-05
0.09346728957022506,0.12085764078419493,7.161794814878235e-05
0.09356385315940079,0.12367931135261445,0.00013859698372733058
0.0936604167485765,0.12650985884951724,0.00023376015522017204
0.09375698033775222,0.1293479862189435,0.0003554426402855742
0.09385354392692793,0.13219238901362843,0.000501787124715139
0.09395010751610365,0.13504175632914595,0.0006707677248307517
0.09404667110527938,0.1378947717398359,0.0008602165911460846
0.0941432346944551,0.1407501142362298,0.0010678526304180355
0.09423979828363081,0.14360645916370357,0.0012913117253550333
0.09433636187280653,0.1464624791620647,0.0015281777962941063
0.09443292546198225,0.1493168451057776,0.0017760140381343297
0.09452948905115796,0.15216822704448443,0.002032393678460729
0.09462605264033369,0.1550152951434671,0.0022949296376269276
0.09472261622950941,0.1578567206236297,0.0025613025260173964
0.09481917981868512,0.16069117670055014,0.002829286484342384
0.09491574340786084,0.16351733952207237,0.0030967724555814448
0.09501230699703656,0.16633388910387714,0.0033617885677259913
0.09510887058621227,0.16913951026236282,0.0036225174003736153
0.095205434175388,0.17193289354413865,0.0038773100013399604
0.09530199776456372,0.17471273615132374,0.004124696608058479
0.09539856135373943,0.1774777428617942,0.004363394109538198
0.09549512494291515,0.18022662694342534,0.004592310355673431
0.09559168853209087,0.18295811106131016,0.004810545480127676
0.0956882521212666,0.18567092817686667,0.005017390449992532
0.09578481571044231,0.18836382243764663,0.005212323089791727
0.09588137929961803,0.1910355500566292,0.005395001849608109
0.09597794288879374,0.19368488017968677,0.005565257598100346
0.09607450647796946,0.19631059573986387,0.00572308372227323
0.09617107006714518,0.19891149429706279,0.005868624808646393
0.0962676336563209,0.20148638886168407,0.00600216416664727
0.09636419724549662,0.2040341087007259,0.0061241104364069335
0.09646076083467234,0.2065535001248413,0.00623498350136428
0.09655732442384805,0.2090434272548154,0.0063353999028117084
0.09665388801302377,0.21150277276593965,0.006426057930168595
0.09675045160219949,0.21393043860875458,0.006507722538620041
0.09684701519137522,0.21632534670466336,0.00658121022580465
0.09694357878055093,0.21868643961494164,0.006647373982301823
0.09704014236972665,0.22101268118172251,0.00670708841727543
0.09713670595890236,0.22330305713957738,0.006761235151123447
0.09723326954807808,0.22555657569641044,0.006810688561420511
0.09732983313725381,0.22777226808243106,0.006856301966704069
0.09742639672642953,0.22994918906609005,0.006898894334385734
0.09752296031560524,0.23208641743596226,0.006939237603746859
0.09761952390478096,0.23418305644766732,0.006978044721890478
0.09771608749395667,0.23623823423505047,0.0070159584988309315
0.09781265108313239,0.23825110418499196,0.007053541396664072
0.09790921467230812,0.24022084527533488,0.007091266375943988
0.09800577826148384,0.24214666237559354,0.007129508928965396
0.09810234185065955,0.24402778651025592,0.007168540433592498
0.09819890543983527,0.245863475084641,0.007208522961640182
0.09829546902901098,0.24765301207346843,0.007249505671824291
0.0983920326181867,0.24939570817244547,0.007291422908325722
0.09848859620736243,0.25109090091334546,0.007334094111716727
0.09858515979653815,0.2527379547432359,0.007377225629286801
0.09868172338571386,0.2543362610686811,0.00742041448692565
0.09877828697488958,0.2558852382658954,0.007463154155208361
0.0988748505640653,0.257384331658007,0.007504842309051377
0.09897141415324102,0.25883301346072984,0.0075447905443746886
0.09906797774241674,0.2602307826979064,0.007582235977936669
0.09916454133159246,0.26157716508851125,0.007616354619346721
0.09926110492076817,0.2628717129068535,0.007646276368664095
0.09935766850994389,0.26411400481782327,0.007671101460343405
0.0994542320991196,0.2653036456891473,0.007689918145781083
0.09955079568829533,0.2664402663827104,0.007701821383277443
0.09964735927747105,0.26752352352709957,0.007705932286417568
0.09974392286664677,0.26855309927357207,0.00770141806988899
0.09984048645582248,0.26952870103773463,0.007687512225358516
0.0999370500449982,0.2704500612292369,0.007663534658652521
0.10003361363417392,0.27131693697182924,0.007628911522210681
0.10013017722334965,0.27212910981613087,0.007583194482504104
0.10022674081252536,0.27288638544745275,0.007526079169588694
0.10032330440170108,0.27358859339099983,0.007457422564006794
0.1004198679908768,0.274235586716738,0.007377259083793743
0.10051643158005251,0.27482724174615647,0.007285815140576696
0.10061299516922824,0.2753634577630921,0.007183521938248165
0.10070955875840396,0.2758441567306873,0.007071026290395147
0.10080612234757967,0.27626928301647224,0.00694919923400101
0.10090268593675539,0.2766388031274323,0.006819142217732187
0.1009992495259311,0.27695270545681017,0.0066821906446018165
0.10109581311510682,0.27721100004424415,0.006539914552452641
0.10119237670428255,0.2774137183507032,0.006394116223207238
0.10128894029345827,0.27756091304951436,0.006246824524873495
0.10138550388263398,0.27765265783461657,0.006100285810445671
0.1014820674718097,0.27768904724698534,0.005956951226409938
0.10157863106098541,0.27767019652000247,0.005819460321441898
0.10167519465016113,0.277596241444348,0.005690620893459156
0.10177175823933686,0.2774673382527943,0.005573385070279693
0.10186832182851258,0.2772836635250879,0.005470821684928446
0.10196488541768829,0.277045414112907,0.005386085079760389
0.10206144900686401,0.27675280708467304,0.005322380552119487
0.10215801259603972,0.2764060796897943,0.005282926735934913
0.10225457618521545,0.27600548934173746,0.005270915295891432
0.10235113977439117,0.2755513136190955,0.0052894683909221465
0.10244770336356689,0.27504385028365835,0.0053415944391303795
0.1025442669527426,0.2744834173142891,0.005430142784417388
0.10264083054191832,0.2738703529552371,0.005557757923948702
0.10273739413109403,0.27320501577733786,0.005726834003408384
0.10283395772026976,0.27248778475039803,0.005939470322440649
0.10293052130944548,0.2717190593249172,0.006197428614863421
0.1030270848986212,0.2708992595211181,0.006502092876587669
0.10312364848779691,0.2700288260232033,0.0068544325084026955
0.10322021207697263,0.2691082202765465,0.0072549695207593705
0.10331677566614834,0.2681379245855181,0.00770375051335853
0.10341333925532407,0.2671184422094876,0.008200324093686108
0.10350990284449979,0.2660502974545151,0.008743724335572448
0.1036064664336755,0.26493403575817337,0.009332460801314998
0.10370303002285122,0.2637702237649174,0.009964515558867279
0.10379959361202694,0.2625594493893706,0.010637347519230745
0.10389615720120267,0.2613023218649356,0.011347904298939336
0.10399272079037838,0.2599994717751061,0.012092641679375774
0.1040892843795541,0.25865155106493126,0.012867550590207477
0.10418584796872982,0.2572592330300905,0.01366819139090077
0.10428241155790553,0.25582321228114824,0.014489735065361683
0.10437897514708125,0.25434420468060226,0.01532701078445695
0.10447553873625698,0.2528229472504711,0.016174559134533965
0.1045721023254327,0.2512601980482543,0.017026690162743507
0.10466866591460841,0.24965673600926566,0.01787754525808513
0.10476522950378413,0.2480133607534555,0.01872116177673832
0.10486179309295984,0.24633089235501027,0.019551539237209776
0.10495835668213556,0.2446101710732091,0.02036270586010606
0.10505492027131129,0.24285205704317067,0.021148784212770326
0.105151483860487,0.24105742992535067,0.021904054742873616
0.10524804744966272,0.23922718851283326,0.02262301604783947
0.10534461103883844,0.23736225029570013,0.02330044082727145
0.10544117462801415,0.23546355098194602,0.023931426599964067
0.10553773821718988,0.2335320439746766,0.0245114404304705
0.1056343018063656,0.23156869980552397,0.025036357095855152
0.10573086539554132,0.2295745055244568,0.025502490323394588
0.10582742898471703,0.22755046404640686,0.025906616936042296
0.10592399257389275,0.22549759345534712,0.026245993945825653
0.10602055616306846,0.22341692626669163,0.02651836882756409
0.1061171197522442,0.22130950864912483,0.026721983378848006
0.10621368334141991,0.21917639960717444,0.026855571720623528
0.10631024693059563,0.21701867012604859,0.026918353111030257
0.10640681051977134,0.21483740228048717,0.026910020329963213
0.10650337410894706,0.21263368830954565,0.026830724441513115
0.10659993769812279,0.21040862965941956,0.02668105675599571
0.1066965012872985,0.20816333599659678,0.026462028794253623
0.10679306487647422,0.20589892419377404,0.026175051007208065
0.10688962846564994,0.2036165172911101,0.025821910927293426
0.10698619205482565,0.201317243435532,0.025404751330289656
0.10708275564400137,0.19900223480090148,0.024926048871642285
0.1071793192331771,0.19667262649196066,0.02438859353638357
0.10727588282235281,0.19432955543503763,0.023795469112032706
0.10737244641152853,0.19197415925856218,0.02315003476498384
0.10746901000070425,0.18960757516648152,0.02245590767807792
0.10756557358987996,0.18723093880768307,0.021716946594957435
0.10766213717905568,0.18484538314455182,0.020937236019335496
0.10775870076823141,0.18245203732376133,0.020121070737616674
0.10785526435740712,0.18005202555238667,0.01927294027362483
0.10795182794658284,0.17764646598236658,0.018397512845923527
0.10804839153575856,0.1752364696062998,0.01749961838185735
0.10814495512493427,0.17282313916747583,0.016584230147734347
0.10824151871411,0.17040756808693383,0.015656444580495796
0.10833808230328572,0.1679908394102973,0.014721458951251312
0.10843464589246143,0.1655740247769272,0.01378454655308407
0.10853120948163715,0.16315818341391142,0.012851029182293581
0.10862777307081287,0.16074436115717974,0.01192624677110403
0.10872433665998858,0.15833358950196919,0.01101552412824035
0.10882090024916431,0.15592688468463875,0.010124134849018883
0.10891746383834003,0.15352524679773158,0.00925726256607855
0.10901402742751574,0.15112965893998914,0.008419959823083497
0.10911059101669146,0.1487410864028534,0.007617104964086455
0.10920715460586718,0.14636047589483964,0.006853357538244923
0.10930371819504289,0.14398875480497023,0.006133112820588287
0.10940028178421862,0.14162683050629932,0.005460456141814731
0.10949684537339434,0.13927558970039197,0.0048391178007584105
0.10959340896257005,0.136935897803426,0.004272429399150762
0.10968997255174577,0.13460859837446187,0.0037632824864933436
0.10978653614092149,0.1322945125862066,0.0033140904300985275
0.10988309973009722,0.12999443873850405,0.0029267544287057594
0.10997966331927293,0.12770915181457726,0.002602634564944757
0.11007622690844865,0.1254394030799245,0.0023425267403462463
0.11017279049762436,0.12318591972365256,0.002146646255522188
0.11026935408680008,0.12094940454185871,0.0020146186875955765
0.1103659176759758,0.11873053566257533,0.0019454785783529858
0.11046248126515153,0.1165299663116902,0.0019376762827620158
0.11055904485432724,0.11434832461910645,0.0019890931427918373
0.11065560844350296,0.11218621346434812,0.0020970649516826394
0.11075217203267868,0.11004421036072538,0.002258413465911917
0.11084873562185439,0.10792286737707013,0.0024694855140295837
0.11094529921103011,0.10582271109600751,0.0027261990516622312
0.11104186280020584,0.10374424260766157,0.00302409532872823
0.11113842638938155,0.10168793753764538,0.003358396176142238
0.11123498997855727,0.09965424610812276,0.003724065291871735
0.11133155356773299,0.09764359323073157,0.004115872315521572
0.1114281171569087,0.09565637863009718,0.004528458430214671
0.11152468074608443,0.09369297699666365,0.0049564022219130924
0.11162124433526015,0.09175373816755304,0.005394284558856075
0.11171780792443586,0.08983898733416744,0.0058367513248252095
0.11181437151361158,0.08794902527523159,0.006278572945021942
0.1119109351027873,0.08608412861399987,0.006714699776487894
0.11200749869196301,0.08424455009835544,0.007140312589260595
0.11210406228113874,0.0824305189025457,0.00755086753226208
0.11220062587031446,0.08064224094932194,0.007942135151623939
0.11229718945949017,0.07887989925127863,0.008310233201461252
0.11239375304866589,0.07714365427020882,0.008651653151448998
0.1124903166378416,0.07543364429333346,0.008963280446364498
0.11258688022701732,0.0737499858252895,0.009242408705693395
0.11268344381619305,0.07209277399478849,0.009486748163411255
0.11278000740536877,0.07046208297491942,0.009694428737386549
0.11287657099454448,0.06885796641607052,0.009863998183990181
0.1129731345837202,0.06728045789051249,0.009994415837001608
0.11306969817289592,0.06572957134770967,0.010085042452206724
0.11316626176207165,0.06420530157945883,0.010135626682390868
0.11326282535124736,0.06270762469400207,0.010146288694351975
0.11335938894042308,0.06123649859828524,0.01011750141307077
0.1134559525295988,0.05979186348757283,0.010050069841355314
0.11355251611877451,0.058373642341667885,0.009945108859144344
0.11364907970795023,0.05698174142699698,0.009804019858134904
0.11374564329712596,0.05561605080387634,0.009628466517136457
0.11384220688630167,0.05427644483828284,0.009420349973906854
0.11393877047547739,0.0529627827174802,0.009181783602232485
0.1140353340646531,0.05167490896889042,0.00891506756033221
0.11413189765382882,0.050412653981597694,0.008622663239617277
0.11422846124300454,0.04917583452991646,0.00830716771238905
0.11432502483218027,0.04796425429844861,0.007971288253851594
0.11442158842135598,0.046777704408092695,0.007617816998163188
0.1145181520105317,0.04561596394246394,0.007249605780198511
0.11461471559970741,0.04447880047421286,0.006869541213972976
0.11471127918888313,0.0433659705907209,0.006480520064819947
0.11480784277805886,0.042277220418685604,0.006085424984635934
0.11490440636723458,0.04121228614709378,0.005687100696885079
0.11500096995641029,0.04017089454810072,0.005288330739405628
0.11509753354558601,0.03915276349533784,0.004891814897055061
0.11519409713476172,0.03815760247918043,0.004500147481390633
0.11529066072393744,0.0371851131184984,0.0041157966393128055
0.11538722431311317,0.036234989668441464,0.003741084895267306
0.11548378790228889,0.03530691952379012,0.0033781711505432533
0.1155803514914646,0.03440058371743043,0.00302903437684483
0.11567691508064032,0.03351565741350057,0.0026954592481978653
0.11577347866981604,0.03265181039477393,0.0023790239541247407
0.11587004225899175,0.031808707543838015,0.0020810904269336697
0.11596660584816748,0.030986009317649985,0.0018027971963105395
0.1160631694373432,0.030183372215046488,0.0015450550549689333
0.11615973302651891,0.029400449236792643,0.0013085456801730467
0.11625629661569463,0.02863689033778195,0.0010937233082345028
0.11635286020487035,0.027892342870982648,0.0009008195037753072
0.11644942379404608,0.02716645202276238,0.0007298510043045406
0.11654598738322179,0.026458861239227423,0.0005806305554590433
0.11664255097239751,0.0257692126432147,0.000452780585400992
0.11673911456157322,0.025097147441614537,0.00034574950080955427
0.11683567815074894,0.024442306322698875,0.0002588303241523966
0.11693224173992466,0.023804329843155628,0.0001911813349067443
0.11702880532910039,0.023182858804543842,0.00014184832833075668
0.1171253689182761,0.022577534618916158,0.00010978806616044853
0.11722193250745182,0.021987999663355993,9.389246569241527e-05
0.11731849609662753,0.021413897623221018,9.301305809110141e-05
0.11741505968580325,0.020854873823885643,0.00010598524388468107
0.11751162327497897,0.020310575550817597,0.00013165188340718648
0.1176081868641547,0.019780652357834657,0.00016888578181820574
0.11770475045333041,0.019264756363411895,0.00021661066124580613
0.11780131404250613,0.018762542534947052,0.0002738202551293051
0.11789787763168184,0.018273668960901258,0.0003395952102758725
0.11799444122085756,0.0177977971107653,0.000413117538580522
0.11809100481003329,0.017334592082824455,0.0004936824207904593
0.118187568399209,0.016883722839723378,0.00058070722711371
0.11828413198838472,0.016444862431849356,0.0006737376819449814
0.11838069557756044,0.01601768820858218,0.0007724511607195175
0.11847725916673615,0.015601882017484848,0.0008766571643135723
0.11857382275591187,0.015197130391520304,0.000986295069125713
0.1186703863450876,0.014803124724418302,0.001101429297890292
0.11876694993426332,0.01441956143432265,0.0012222420965560285
0.11886351352343903,0.01404614211587884,0.00134902413563692
0.11896007711261475,0.013682573680940996,0.0014821631800097438
0.11905664070179046,0.013328568488084988,0.0016221310891403186
0.11915320429096618,0.012983844461152257,0.0017694694203612723
0.11924976788014191,0.012648125197039532,0.001924773911508666
0.11934633146931763,0.012321140062986537,0.0020886781165647076
0.11944289505849334,0.012002624283616172,0.0022618364597366838
0.11953945864766906,0.01169231901799137,0.0024449069605540713
0.11963602223684477,0.011389971426975775,0.0026385338661240676
0.1197325858260205,0.011095334731179508,0.0028433304077632275
0.11982914941519622,0.010808168259794396,0.003059861878934376
0.11992571300437194,0.010528237490616908,0.003288629210885516
0.12002227659354765,0.010255314081574146,0.00353005320262783
0.12011884018272337,0.009989175894061786,0.0037844595438238766
0.12021540377189908,0.009729607008415218,0.0040520647535133665
0.12031196736107481,0.00947639773183105,0.004332963144933166
0.12040853095025053,0.009229344599060206,0.004627114917278693
0.12050509453942625,0.008988250366188315,0.004934335469156809
0.12060165812860196,0.008752923997825889,0.0052542860254886975
0.12069822171777768,0.008523180648020488,0.005586465669276072
0.1207947853069534,0.008298841635202244,0.005930204871263173
0.12089134889612912,0.008079734411471865,0.006284660613252822
0.12098791248530484,0.007865692526531097,0.006648813203670518
0.12108447607448056,0.007656555586550666,0.00702146488584708
0.12118103966365627,0.00745216920826943,0.007401240339330995
0.12127760325283199,0.00725238496859846,0.007786589171352328
0.12137416684200772,0.007057060350010574,0.008175790488441158
0.12147073043118344,0.006866058681975439,0.00856695962649379
0.12156729402035915,0.006679249078698563,0.008958057100831954
0.12166385760953487,0.0064965063734089895,0.009346899815863537
0.12176042119871058,0.006317711049433033,0.009731174546995736
0.1218569847878863,0.006142749168280525,0.010108453675917638
0.12195354837706203,0.005971512294959344,0.010476213125051445
0.12205011196623775,0.005803897420724412,0.010831852398844261
0.12214667555541346,0.005639806883456131,0.011172716599890883
0.12224323914458918,0.0054791482858535115,0.011496120247962803
0.1223398027337649,0.005321834411615649,0.011799372691285991
0.12243636632294061,0.005167783139775489,0.012079804863221064
0.12253292991211634,0.005016917357338947,0.012334797105122402
0.12262949350129206,0.004869164870371476,0.012561807748655614
0.12272605709046777,0.004724458313666289,0.012758402129055511
0.12282262067964349,0.004582735059116402,0.012922281685282378
0.1229191842688192,0.004443937122901898,0.013051312793980968
0.12301574785799493,0.004308011071598752,0.013143554981540993
0.12311231144717065,0.004174907927301748,0.01319728816205641
0.12320887503634637,0.004044583071847507,0.013211038558009121
0.12330543862552208,0.003916996150215518,0.013183602974375371
0.1234020022146978,0.0037921109731745353,0.01311407111472458
0.12349856580387351,0.0036698954192374072,0.013001845648942688
0.12359512939304924,0.003550321335977806,0.012846659765681303
0.12369169298222496,0.0034333644407543926,0.012648591967852877
0.12378825657140068,0.003319004220885774,0.012408077895956863
0.12388482016057639,0.003207223833307854,0.01212591899142052
0.12398138374975211,0.0030980100037449783,0.011803287840350927
0.12407794733892782,0.002991352925416938,0.01144173006715589
0.12417451092810355,0.0028872461573027203,0.011043162677627687
0.12427107451727927,0.0027856865219738907,0.010609868782535288
0.12436763810645499,0.0026866740030113954,0.010144488665887188
0.1244642016956307,0.0025902116420118493,0.009650007197057268
0.12456076528480642,0.002496305435190607,0.009129737623094634
0.12465732887398215,0.0024049642295830833,0.00858730181678101
0.12475389246315786,0.0023161996188475094,0.00802660709716067
0.12485045605233358,0.0022300258386685696,0.007451819781952653
0.1249470196415093,0.002146459661760883,0.00686733567479378
0.125043583230685,0.002065520292473729,0.00627774773382749
0.12514014681986071,0.0019872292609937705,0.005687811210666553
0.12523671040903644,0.001911610317149035,0.00510240658910472
0.12533327399821217,0.0018386893238129776,0.004526500689857992
0.12542983758738788,0.0017684941499133786,0.003965106339934981
0.1255264011765636,0.0017010545630509722,0.0034232410318266377
0.1256229647657393,0.0016364021217354055,0.0029058850176496803
0.12571952835491504,0.0015745700672494729,0.0024179392959574886
0.12581609194409077,0.0015155932151559943,0.0019641839537215674
0.12591265553326647,0.0014595078464654694,0.0015492373228181055
0.1260092191224422,0.0014063515984867165,0.001177516399381939
0.1261057827116179,0.0013561633553876816,0.0008531989560325374
0.12620234630079363,0.0013089831384985168,0.0005801877518619895
0.12629890988996936,0.0012648519963938008,0.00036207721404070805
0.12639547347914507,0.001223811894797836,0.00020212292886288168
0.1264920370683208,0.0011859056063605392,0.00010321424000973853
0.1265886006574965,0.0011511766003609123,6.785020871504035e-05
0.12668516424667223,0.001119668932397691,9.811914526927938e-05
0.12678172783584793,0.001091427134137318,0.00019568187469544816
0.12687829142502366,0.0010664961031925687,0.00036175885212754886
0.1269748550141994,0.001044920993215408,0.0005971211959613554
0.1270714186033751,0.0010267471042916462,0.0009020856596496663
0.12716798219255082,0.001012019773734932,0.0012765135164139406
0.12726454578172652,0.0010007842673818762,0.0017198132854415516
0.12736110937090225,0.0009930856715000167,0.002230947183634069
0.12745767296007798,0.000988968785424708,0.002808441144011441
0.12755423654925369,0.0009884780150494093,0.003450398200920828
0.12765080013842942,0.0009916572673007301,0.004154515003786912
0.12774736372760512,0.0009985498457343118,0.00491810118599191
0.12784392731678085,0.0010091983473955863,0.00573810128439776
0.12794049090595658,0.0010236445610943717,0.006611118878925761
0.12803705449513228,0.0010419293672473725,0.007533442601486182
0.128133618084308,0.0010640926394484321,0.008501073650326603
0.1282301816734837,0.0010901731479299084,0.009509754440409178
0.12832674526265944,0.0011202084650830623,0.010554998023463092
0.12842330885183514,0.0011542348732079676,0.01163211792326226
0.12851987244101087,0.001192287274666835,0.012736258052656298
0.1286164360301866,0.0012343991046152194,0.013862422408577208
0.1287129996193623,0.001280602246487784,0.015005504279088649
0.12880956320853804,0.0013309269504154604,0.01616031474131811
0.12890612679771374,0.0013854017547486244,0.017321610279403092
0.12900269038688947,0.0014440534108617483,0.01848411940545116
0.1290992539760652,0.0015069068114108542,0.01964256822178516
0.1291958175652409,0.0015739849222114854,0.020791704917082002
0.12929238115441663,0.0016453087179022546,0.021926323239890706
0.12938894474359233,0.0017208971215511713,0.02304128503803225
0.12948550833276806,0.001800766948357192,0.02413154198925285
0.1295820719219438,0.0018849328535911474,0.02519215667519391
0.1296786355111195,0.0019734072849116016,0.026218323165714007
0.12977519910029522,0.0020662004391819866,0.02720538728266783
0.12987176268947093,0.0021633202239039174,0.028148866700958876
0.12996832627864666,0.0022647722233707884,0.02904447102008677
0.13006488986782236,0.002370559669632021,0.029888121902252936
0.1301614534569981,0.0024806834183467704,0.030675973324813328
0.13025801704617382,0.002595141929587567,0.03140443193739625
0.13035458063534952,0.0027139312536445916,0.03207017744995119
0.13045114422452525,0.0028370450218584533,0.03267018291027421
0.13054770781370095,0.0029644744424985017,0.0332017346614789
0.13064427140287668,0.0030962083016837596,0.03366245170490867
0.1307408349920524,0.00323223296932132,0.034050304135519564
0.13083739858122811,0.0033725324100287992,0.03436363026814461
0.13093396217040384,0.003517088198975971,0.03460115203718558
0.13103052575957955,0.003665879542570729,0.03476198823161083
0.13112708934875528,0.003818883303891285,0.03484566512353173
0.131223652937931,0.003976074032746559,0.0348521240630962
0.1313202165271067,0.004137424000227978,0.034781725645292756
0.13141678011628244,0.004302903237597491,0.0346352501048949
0.13151334370545814,0.004472479579335294,0.03441389366280758
0.13160990729463387,0.004646118710153381,0.03411926062833831
0.13170647088380957,0.004823784215761467,0.033753351154610804
0.1318030344729853,0.005005437637158096,0.03331854464512761
0.13189959806216103,0.005191038528195079,0.03281757891472788
0.13199616165133674,0.00538054451615557,0.03225352531402258
0.13209272524051247,0.00557391136506625,0.0316297601290429
0.13218928882968817,0.005771093041449761,0.030949932663670448
0.1322858524188639,0.005972041782214046,0.03021793049816307
0.13238241600803963,0.006176708164359371,0.029437842489972478
0.13247897959721533,0.006385041176176432,0.02861392014077665
0.13257554318639106,0.00659698828959945,0.027750537994648484
0.13267210677556676,0.006812495533368699,0.026852153755489272
0.1327686703647425,0.007031507566656118,0.025923268816898486
0.13286523395391822,0.007253967752796956,0.024968389884714115
0.13296179754309392,0.0074798182327724845,0.023991992342169734
0.13305836113226965,0.007708999998088709,0.0229984859611463
0.13315492472144536,0.007941452962692604,0.021992183501813586
0.13325148831062109,0.008177116033573986,0.020977272668803438
0.1333480518997968,0.008415927179705941,0.019957791807043764
0.13344461548897252,0.008657823498979898,0.018937609626601952
0.13354117907814825,0.00890274128280334,0.017920409145790604
0.13363774266732395,0.009150616078034465,0.016909675937751143
0.13373430625649968,0.009401382745945984,0.01590869066035174
0.13383086984567538,0.009654975517911831,0.014920525745041978
0.1339274334348511,0.009911328047543008,0.013948046019923678
0.13402399702402684,0.010170373458995456,0.012993912948294037
0.13412056061320254,0.010432044391209053,0.012060592078734002
0.13421712420237827,0.010696273037842352,0.01115036322883289
0.13431368779155398,0.010962991182697257,0.010265332863961607
0.1344102513807297,0.011232130230446516,0.009407448086925714
0.13450681496990544,0.011503621232497532,0.008578511625355703
0.13460337855908114,0.011777394907857586,0.00778019719225732
0.13469994214825687,0.012053381658881647,0.007014064601811466
0.13479650573743257,0.012331511581814936,0.006281574047177241
0.1348930693266083,0.012611714472071137,0.005584098989084287
0.134989632915784,0.012893919824206177,0.004922937162244108
0.13508619650495973,0.013178056826582914,0.004299319279247993
0.13518276009413546,0.0134640543507459,0.0037144150964886027
0.13527932368331116,0.01375184093555296,0.003169336601063426
0.1353758872724869,0.014041344766141427,0.0026651381786658543
0.1354724508616626,0.014332493647829146,0.0022028137269807686
0.13556901445083833,0.014625214975083898,0.0017832907838362076
0.13566557804001406,0.01491943569571712,0.0014074218411099526
0.13576214162918976,0.015215082270487231,0.001075973111034164
0.1358587052183655,0.01551208062832301,0.000789611098240318
0.1359552688075412,0.01581035611740036,0.0005488874060606596
0.13605183239671692,0.016109833452337886,0.00035422226706851456
0.13614839598589265,0.016410436657784317,0.0002058873338580482
0.13624495957506835,0.01671208900871288,0.000103988295338192
0.13634152316424408,0.017014712967743907,4.844789558932178e-05
0.13643808675341978,0.01731823011983847,3.8989926346147714e-05
0.13653465034259551,0.017622561104733418,7.512474071648593e-05
0.13663121393177122,0.01792762554748998,0.00015613679564368817
0.13672777752094695,0.018233341987559288,0.00028107467520823923
0.13682434111012268,0.018539627806764564,0.00044874397798011967
0.13692090469929838,0.018846399156627842,0.0006577033715692653
0.1370174682884741,0.019153570885464138,0.0009062640289674991
0.1371140318776498,0.01946105646568639,0.0011924925672388864
0.13721059546682554,0.019768767921759734,0.0015142175128409568
0.13730715905600127,0.020076615759252844,0.001869039222684438
0.13740372264517697,0.020384508895440308,0.002254343099310102
0.1375002862343527,0.020692354591899238,0.0026673158554476046
0.1375968498235284,0.021000058389548232,0.003104964510614314
0.13769341341270414,0.02130752404657496,0.003564137742778653
0.13778997700187987,0.021614653479685896,0.004041549173346394
0.13788654059105557,0.021921346709104356,0.0045338021351154605
0.1379831041802313,0.02222750180774208,0.0050374154609288254
0.138079667769407,0.02253301485494188,0.005548849835338722
0.13817623135858273,0.02283777989519022,0.00606453427177844
0.13827279494775843,0.023141688902170988,0.006580892311880145
0.13836935853693416,0.023444631748520656,0.0070943675895010945
0.1384659221261099,0.023746496181623746,0.007601448457009963
0.1385624857152856,0.02404716780576496,0.008098691432449628
0.13865904930446132,0.024346530070935724,0.008582743290098269
0.13875561289363703,0.024644464268561005,0.009050361680521377
0.13885217648281276,0.024940849534397583,0.00949843422638779
0.13894874007198849,0.02523556285881841,0.009923996094344184
0.1390453036611642,0.02552847910467491,0.010324246088821466
0.13914186725033992,0.02581947103290182,0.010696561348989336
0.13923843083951562,0.026108409335991997,0.011038510754003694
0.13933499442869135,0.026395162679449552,0.011347867153684823
0.13943155801786708,0.02667959775128564,0.011622618541924675
0.13952812160704278,0.026961579319605494,0.011860978279176359
0.1396246851962185,0.02724097029828406,0.012061394449595506
0.13972124878539421,0.027517631820718386,0.012222558409547678
0.13981781237456994,0.02779142332159421,0.01234341254935546
0.13991437596374565,0.02806220262658011,0.012423157251707413
0.14001093955292138,0.028329826049838584,0.012461256990555612
0.1401075031420971,0.02859414849919781,0.012457445476069326
0.1402040667312728,0.02885502358881164,0.012411729716617545
0.14030063032044854,0.029112303759096837,0.01232439283993492
0.14039719390962424,0.029365840403715884,0.01219599549434712
0.14049375749879997,0.029615484003338438,0.012027375638542705
0.1405903210879757,0.029861084265898286,0.011819646525788548
0.1406868846771514,0.030102490273026788,0.01157419269609014
0.14078344826632713,0.03033955063233182,0.011292663807531371
0.14088001185550283,0.03057211363516101,0.010976966165350247
0.14097657544467856,0.030800027419472322,0.010629251843250583
0.1410731390338543,0.031023140137417603,0.01025190533471654
0.14116970262303,0.031241300127222555,0.009847527721077757
0.14126626621220573,0.03145435608894097,0.00941891839598091
0.14136282980138143,0.03166215726363758,0.008969054440844344
0.14145939339055716,0.03186455361555613,0.008501067800854946
0.14155595697973286,0.03206139601680428,0.008018220464218274
0.1416525205689086,0.03225253643409795,0.0075238778968813895
0.14174908415808432,0.03243782811708863,0.00702148102919683
0.14184564774726002,0.032617125787800835,0.006514517128546771
0.14194221133643575,0.03279028583070768,0.006006489921636549
0.14203877492561146,0.032957166482968904,0.005500889351084081
0.14213533851478719,0.033117628024361,0.005001161362453945
0.14223190210396291,0.03327153296643639,0.004510678119706543
0.14232846569313862,0.03341874624045231,0.004032709039132223
0.14242502928231435,0.03355913538361819,0.0035703930145305493
0.14252159287149005,0.03369257072322443,0.0031267121802519074
0.14261815646066578,0.033818925558223974,0.002704467524652503
0.14271472004984148,0.03393807633784957,0.0023062566256865694
0.1428112836390172,0.03404990283687384,0.001934453734151495
0.1429078472281929,0.03415428832712043,0.001591192380167944
0.14300441081736864,0.03425111974486641,0.0012783506265322954
0.14310097440654437,0.034340287853786934,0.000997539040523146
0.14319753799572008,0.03442168740311112,0.0007500914054193328
0.1432941015848958,0.03449521728068428,0.0005370581462293439
0.1433906651740715,0.03456078066064969,0.0003592024025892458
0.14348722876324724,0.03461828514548474,0.0002169986468983377
0.14358379235242297,0.03466764290214703,0.00011063371864767235
0.14368035594159867,0.03470877079211509,4.0010127279390394e-05
0.1437769195307744,0.03474159049512491,4.75146610702455e-06
0.1438734831199501,0.034766028626430794,4.20977864887881e-06
0.14397004670912583,0.03478201684744018,3.747472553687997e-05
0.14406661029830156,0.034789491969600926,0.0001033844138607837
0.14416317388747726,0.03478839605143545,0.00020053776987914403
0.144259737476653,0.03477867648864762,0.0003273083586240497
0.1443563010658287,0.03476028609724806,0.00048185957795013334
0.14445286465500443,0.03473318318966289,0.0006621611778061297
0.14454942824418013,0.03469733164382407,0.0008660070756983059
0.14464599183335586,0.03465270096524976,0.0010910344543662972
0.1447425554225316,0.03459926634215554,0.0013347441357368412
0.1448391190117073,0.03453700869365046,0.0015945222247786934
0.14493568260088302,0.03446591471109679,0.0018676630069360623
0.14503224619005872,0.034385976892733205,0.002151393062919395
0.14512880977923445,0.03429719357167725,0.0024428965349386667
0.14522537336841018,0.0341995689374414,0.0027393414397566098
0.14532193695758588,0.03409311305111978,0.003037906877633433
0.14541850054676161,0.03397784185441205,0.0033358109342825873
0.14551506413593732,0.033853777172673134,0.0036303390178160705
0.14561162772511305,0.03372094671218661,0.003918872317129791
0.14570819131428878,0.033579384051879886,0.004198916015272707
0.14580475490346448,0.03342912862970576,0.004468126844157832
0.1459013184926402,0.033270225723931596,0.0047243395284505075
0.1459978820818159,0.03310272642958559,0.004965591639307748
0.14609444567099164,0.03292668763031866,0.005190146365096826
0.14619100926016734,0.03274217196595408,0.005396512707984076
0.14628757284934307,0.03254924779599504,0.005583462633401494
0.1463841364385188,0.03234798915937735,0.005750044734185357
0.1464807000276945,0.03213847573074997,0.005895594022247061
0.14657726361687023,0.03192079277357705,0.006019737526840066
0.14667382720604594,0.031695031090352876,0.006122395458081286
0.14677039079522167,0.03146128697022602,0.0062037777850409755
0.1468669543843974,0.03121966213432564,0.006264376176650232
0.1469635179735731,0.030970263679085622,0.006304951357850513
0.14706008156274883,0.030713204017855267,0.006326516039522091
0.14715664515192453,0.030448600821088554,0.006330313685530182
0.14725320874110026,0.030176576955388276,0.006317793480444697
0.147349772330276,0.029897260421687957,0.0062905819541133
0.1474463359194517,0.029610784292835497,0.006250451801475842
0.14754289950862742,0.029317286650842152,0.006199288505363341
0.14763946309780313,0.029016910524045276,0.006139055424443812
0.14773602668697886,0.028709803824422807,0.00607175804629982
0.14783259027615456,0.028396119285290775,0.005999408125638793
0.1479291538653303,0.028076014399589073,0.005923988429129903
0.14802571745450602,0.02774965135896171,0.005847418791070923
0.14812228104368172,0.02741719699380555,0.005771524148325183
0.14821884463285745,0.027078822714460184,0.005698005169515911
0.14831540822203315,0.026734704453679106,0.005628412023700314
0.14841197181120888,0.026385022610514744,0.005564121749540431
0.1485085354003846,0.026029961995721353,0.005506319589749316
0.1486050989895603,0.02566971177876629,0.00545598455020473
0.14870166257873604,0.025304465436509452,0.005413879331849518
0.14879822616791175,0.02493442070359766,0.005380544669946395
0.14889478975708748,0.024559779524591728,0.005356298003172036
0.1489913533462632,0.024180748007820024,0.005341236288244096
0.1490879169354389,0.02379753638093127,0.005335242677931347
0.14918448052461464,0.023410358948091386,0.0053379966947925805
0.14928104411379034,0.023019434048748774,0.005348987462715427
0.14937760770296607,0.022624984017858434,0.005367529505584746
0.14947417129214177,0.022227235147443205,0.005392780588747296
0.1495707348813175,0.021826417649331138,0.00542376106507971
0.14966729847049323,0.02142276561889373,0.005459374193283052
0.14976386205966893,0.02101651699957927,0.005498426920506407
0.14986042564884466,0.020607913548012793,0.0055396506627716155
0.14995698923802037,0.020197200799412413,0.005581721672394484
0.1500535528271961,0.01978462803304053,0.005623280648630225
0.15015011641637183,0.019370448237401455,0.005662951322603374
0.15024668000554753,0.01895491807485644,0.005699357826500153
0.15034324359472326,0.018538297845321877,0.005731140736232654
0.15043980718389896,0.018120851448691893,0.005756971752671875
0.1505363707730747,0.01770284634560408,0.005775567055736021
0.15063293436225042,0.017284553516159998,0.005785699425177513
0.15072949795142612,0.0168662474161879,0.005786209269437161
0.15082606154060185,0.016448205930630518,0.005776014737709862
0.15092262512977755,0.016030710323619506,0.005754121109275154
0.15101918871895328,0.015614045184798957,0.00571962965789264
0.151115752308129,0.01519849837144683,0.005671746177966429
0.15121231589730472,0.014784360945935285,0.005609789334285651
0.15130887948648045,0.014371927108077973,0.005533198960112188
0.15140544307565615,0.013961494121898876,0.005441544381355433
0.15150200666483188,0.013553362236367801,0.0053345327901712794
0.15159857025400758,0.01314783459964896,0.005212017632438136
0.1516951338431833,0.01274521716641342,0.0050740069132598365
0.15179169743235904,0.012345818597777669,0.004920671266036771
0.15188826102153474,0.01194995015344224,0.004752351576714818
0.15198482461071047,0.01155792557561514,0.0045695659083065075
0.15208138819988617,0.011170060964327275,0.004373015434099709
0.1521779517890619,0.010786674643759852,0.0041635890630221245
0.15227451537823763,0.010408087019231788,0.003942366428843097
0.15237107896741334,0.010034620424515747,0.003710618917085056
0.15246764255658907,0.009666598959178537,0.0034698084199086816
0.15256420614576477,0.009304348315676657,0.0032215835394928407
0.1526607697349405,0.008948195595959932,0.002967773003654698
0.1527573333241162,0.00859846911738144,0.0027103761122802238
0.15285389691329193,0.0082554982077413,0.002451550097793127
0.15295046050246766,0.0079196129893318,0.0021935943552791187
0.15304702409164336,0.0075911441518953845,0.0019389315756932893
0.1531435876808191,0.007270422714446971,0.0016900858963422893
0.1532401512699948,0.006957779775957399,0.0014496582640252463
0.15333671485917053,0.006653546254938311,0.0012202992853246732
0.15343327844834626,0.00635805261802399,0.0010046799131182061
0.15352984203752196,0.0060716285976840515,0.0008054603861204041
0.1536264056266977,0.005794602899256332,0.000625257897027779
0.1537229692158734,0.00552730289754313,0.00046661351272627024
0.15381953280504912,0.005270054323254556,0.0003319589053806165
0.15391609639422485,0.005023180939646674,0.0002235834747665783
0.15401265998340055,0.0047870042097428,0.000143602448961085
0.15410922357257628,0.004561842954585334,9.392654196685752e-05
0.15420578716175198,0.0043480130030127614,7.623372293850141e-05
0.1543023507509277,0.004145826833506108,9.194361284333543e-05
0.15439891434010342,0.003955593208701949,0.00014219497158862566
0.15449547792927915,0.0037776168032135986,0.0002278266733672652
0.15459204151845488,0.003612197825450417,0.000349362492205793
0.15468860510763058,0.003459631634170244,0.0005069999358899159
0.1547851686968063,0.003320208350541093,0.0007006032774068124
0.154881732285982,0.003194212466532129,0.0009297008418594506
0.15497829587515774,0.0030819224504867997,0.0011934865166811862
0.15507485946433347,0.0029836103507715765,0.0014908253670760496
0.15517142305350917,0.0028995413984226354,0.0018202631599303716
0.1552679866426849,0.002829973609741006,0.0021800395306075214
0.1553645502318606,0.002775157389816143,0.002568104470216027
0.15546111382103633,0.0027353351379737372,0.002982137767666965
0.15555767741021206,0.002710740856166573,0.0034195710119637353
0.15565424099938777,0.0027015997613382696,0.0038776117458350066
0.1557508045885635,0.002708127902798,0.004353269361430769
0.1558473681777392,0.0027305317856540306,0.004843382341084985
0.15594393176691493,0.002769008001348977,0.005344646469276912
0.15604049535609066,0.0028237428663403326,0.005853643673576589
0.15613705894526636,0.002894912069959379,0.006366871189961707
0.1562336225344421,0.0029826803324693478,0.006880770788669699
0.1563301861236178,0.0030872010743253925,0.007391757838008925
0.15642674971279352,0.0032086160976190687,0.007896250022755971
0.15652331330196922,0.003347055280660462,0.008390695568687375
0.15661987689114495,0.0035026362866234693,0.008871600853716603
0.15671644048032068,0.003675464287141499,0.009335557307729675
0.1568130040694964,0.003865631701703927,0.009779267516929278
0.15690956765867212,0.0040732179536600455,0.010199570454171237
0.15700613124784782,0.004298289243587675,0.010593465754918431
0.15710269483702355,0.004540898340737877,0.010958136949996549
0.15719925842619928,0.004801084393207018,0.011290973552706226
0.15729582201537498,0.005078872757437794,0.011589591880732173
0.1573923856045507,0.005374274847583476,0.01185185447455077
0.1574889491937264,0.005687288005213159,0.012075887955650524
0.15758551278290214,0.006017895389770901,0.012260099151706783
0.15768207637207787,0.0063660658901298454,0.01240318930360663
0.15777863996125358,0.006731754057524047,0.012504166162354844
0.1578752035504293,0.007114900060063975,0.01256235378349397
0.157971767139605,0.0075154296589770055,0.012577399833441713
0.15806833072878074,0.007933254206641862,0.012549280236400858
0.15816489431795644,0.008368270666417356,0.012478301012090605
0.15826145790713217,0.008820361654198078,0.01236509718302478
0.1583580214963079,0.009289395501555726,0.012210628664604815
0.1584545850854836,0.009775226340261008,0.012016173090830478
0.15855114867465933,0.01027769420791859,0.011783315571745568
0.15864771226383503,0.010796625174370623,0.011513935424446736
0.15874427585301076,0.011331831488476916,0.01121018996624243
0.1588408394421865,0.011883111744807596,0.010874495504984084
0.1589374030313622,0.012450251069733747,0.01050950570645905
0.15903396662053793,0.013033021326344136,0.01011808756087295
0.15913053020971363,0.013631181337563997,0.009703295208870718
0.15922709379888936,0.014244477126805778,0.00926834192139541
0.1593236573880651,0.014872642175434356,0.008816570556280972
0.1594202209772408,0.015515397696290468,0.008351422837274204
0.15951678456641652,0.01617245292247997,0.007876407817784852
0.15961334815559222,0.01684350541059725,0.007395069901814831
0.15970991174476795,0.01752824135753035,0.0069109567980637325
0.15980647533394365,0.018226335929964334,0.006427587780164783
0.15990303892311938,0.018937453605679583,0.005948422616464405
0.1599996025122951,0.01966124852572828,0.005476831516999555
0.16009616610147082,0.02039736485655412,0.00501606642372848
0.16019272969064655,0.021145437161114524,0.004569233943205704
0.16028929327982225,0.021905090778064067,0.004139270189440532
0.16038585686899798,0.02267594220804824,0.003728917769502579
0.1604824204581737,0.023457599506165546,0.0033407051065295784
0.1605789840473494,0.024249662679664188,0.0029769282552044017
0.16067554763652514,0.025051724089949212,0.002639635324701738
0.16077211122570084,0.025863368857977596,0.00233061358469097
0.16086867481487657,0.026684175272162176,0.0020513792923752927
0.1609652384040523,0.027513715197897207,0.0018031702437853437
0.161061801993228,0.028351554487855153,0.001586941021493804
0.16115836558240373,0.029197253392237256,0.0014033608842490281
0.16125492917157944,0.030050366968165557,0.0012528142221504904
0.16135149276075517,0.03091044548745565,0.0011354034840098822
0.16144805634993087,0.03177703484203458,0.0010509544713067337
0.1615446199391066,0.032649676946295454,0.0009990238851637937
0.16164118352828233,0.03352791013572403,0.0009789090083262102
0.16173774711745803,0.03441126956116813,0.000989659402273569
0.16183431070663376,0.035299287578154495,0.0010300904992583968
0.16193087429580946,0.03619149413069439,0.0010987989690672952
0.1620274378849852,0.03708741712907432,0.001194179739529393
0.16212400147416092,0.03798658282114135,0.001314444547186709
0.16222056506333662,0.03888851615666015,0.0014576418892615372
0.16231712865251235,0.039792741144339776,0.0016216782394904978
0.16241369224168806,0.040698781201175746,0.0018043403782596777
0.1625102558308638,0.04160615949379225,0.0020033186718306025
0.16260681942003952,0.04251439927150999,0.0022162311166903227
0.16270338300921522,0.04342302419090197,0.0024406479439466875
0.16279994659839095,0.04433155863163583,0.0026741165562784042
0.16289651018756665,0.045239528003443844,0.0029141865475234155
0.16299307377674238,0.04614645904409737,0.0031584345340135507
0.16308963736591808,0.04705188010829045,0.003404488508761345
0.1631862009550938,0.047955321447386255,0.0036500514160761046
0.16328276454426954,0.048856315479994424,0.003892923636498913
0.16337932813344525,0.04975439705339948,0.004131024071259737
0.16347589172262098,0.05064910369587901,0.004362409522624062
0.16357245531179668,0.05153997585997324,0.0045852920820124874
0.1636690189009724,0.05242655715682077,0.004798054261780243
0.16376558249014814,0.05330839458167188,0.004999261638723327
0.16386214607932384,0.05418503873073594,0.005187672817084465
0.16395870966849957,0.055056044009536016,0.005362246565062686
0.16405527325767527,0.055920968832968966,0.00552214603025172
0.164151836846851,0.056779375817283574,0.005666739994556848
0.16424840043602673,0.0576308319642153,0.0057956011862727525
0.16434496402520243,0.05847490883753473,0.0059085017244322425
0.16444152761437816,0.059311182732275064,0.006005405826536939
0.16453809120355387,0.06013923483692666,0.006086459963702527
0.1646346547927296,0.06095865138889644,0.00615198069563356
0.1647312183819053,0.06176902382354223,0.006202440460326698
0.16482778197108103,0.06256994891710715,0.0062384516289323635
0.16492434556025676,0.06336102892387531,0.006260749163904287
0.16502090914943246,0.06414187170789595,0.006270172237835365
0.1651174727386082,0.06491209086961733,0.006267645180873247
0.1652140363277839,0.06567130586777509,0.00625415812619907
0.16531059991695962,0.06641914213689391,0.006230747715917713
0.16540716350613535,0.06715523120075709,0.006198478214167694
0.16550372709531105,0.06787921078219565,0.0061584233509419375
0.16560029068448678,0.06859072490955684,0.0061116491898001455
0.16569685427366249,0.06928942402020889,0.006059198276299825
0.16579341786283822,0.06997496506142763,0.006002075282783894
0.16588998145201395,0.07064701158901453,0.005941234320349274
0.16598654504118965,0.07130523386399268,0.005877568041839526
0.16608310863036538,0.07194930894771508,0.005811898611946913
0.16617967221954108,0.07257892079570416,0.0057449705735008825
0.1662762358087168,0.07319376035055747,0.005677445594146858
0.1663727993978925,0.07379352563421683,0.005609899036262905
0.16646936298706824,0.07437792183990095,0.005542818256297308
0.16656592657624397,0.0749466614239911,0.0054766025087618865
0.16666249016541967,0.07549946419813391,0.005411564305618853
0.1667590537545954,0.07603605742182633,0.005347932064264048
0.1668556173437711,0.07655617589571465,0.0052858538669011985
0.16695218093294684,0.07705956205583904,0.005225402150700698
0.16704874452212257,0.07754596606902318,0.0051665791513403605
0.16714530811129827,0.07801514592959839,0.005109322931618129
0.167241871700474,0.0784668675576267,0.005053513840904198
0.1673384352896497,0.07890090489876656,0.004998981269145376
0.16743499887882543,0.07931704002590784,0.004945510579723441
0.16753156246800116,0.07971506324266518,0.004892850127409246
0.16762812605717686,0.0800947731888178,0.004840718289668485
0.1677246896463526,0.0804559769477367,0.004788810460460206
0.1678212532355283,0.08079849015581941,0.0047368059743377825
0.16791781682470402,0.081122137113946,0.004684374944224744
0.16801438041387973,0.08142675090090692,0.004631185008007499
0.16811094400305546,0.08171217348876063,0.004576907986629357
0.1682075075922312,0.08197825586002552,0.004521226459501777
0.1683040711814069,0.08222485812659722,0.004463840261850142
0.16840063477058262,0.08245184965024595,0.004404472903391032
0.16849719835975832,0.08265910916451956,0.004342877899047046
0.16859376194893405,0.08284652489785098,0.004278844990951538
0.16869032553810978,0.08301399469764158,0.0042122062276433786
0.16878688912728548,0.08316142615505141,0.004142841852054666
0.1688834527164612,0.08328873673021496,0.004070685935638532
0.16898001630563692,0.0833958538775546,0.003995731682739134
0.16907657989481265,0.08348271517085111,0.0039180363179947345
0.16917314348398838,0.08354926842769081,0.003837725460970904
0.16926970707316408,0.08359547183288782,0.0037549968870057983
0.1693662706623398,0.08362129406045392,0.0036701235718762785
0.1694628342515155,0.08362671439366072,0.003583455920646046
0.16955939784069124,0.08361172284271547,0.003495423087988622
0.16965596142986694,0.08357632025955003,0.003406533308269139
0.16975252501904267,0.08352051844920104,0.003317373168385222
0.1698490886082184,0.08344434027724161,0.0032286057743212714
0.1699456521973941,0.08334781977269738,0.003140967782928145
0.17004221578656983,0.08323100222588405,0.003055265292869084
0.17013877937574554,0.08309394428056223,0.002972368612167937
0.17023534296492127,0.08293671401982111,0.002893205943523317
0.170331906554097,0.08275939104507089,0.0028187560516903525
0.1704284701432727,0.08256206654753634,0.002750039998982749
0.17052503373244843,0.08234484337161493,0.002688112054619155
0.17062159732162413,0.08210783606949591,0.0026340499005776848
0.17071816091079986,0.0818511709463979,0.002588944270366828
0.1708147244999756,0.0815749860958215,0.002553888167260299
0.1709112880891513,0.08127943142419825,0.0025299658148857347
0.17100785167832702,0.08096466866433669,0.0025182414954871436
0.17110441526750272,0.0806308713770787,0.0025197484297890395
0.17120097885667845,0.08027822494059111,0.0025354778473644125
0.17129754244585416,0.07990692652674132,0.0025663683880975665
0.1713941060350299,0.07951718506403059,0.002613295964179473
0.17149066962420562,0.07910922118657339,0.0026770641986462317
0.17158723321338132,0.07868326716865386,0.002758395541376406
0.17168379680255705,0.07823956684441324,0.0028579231473954713
0.17178036039173275,0.07777837551225698,0.002976183585963864
0.17187692398090848,0.07729995982361397,0.003113610432944196
0.1719734875700842,0.07680459765571725,0.003270528783955112
0.1720700511592599,0.07629257796811588,0.003447150712381434
0.17216661474843564,0.07576420064267672,0.003643571684844279
0.17226317833761134,0.07521977630688872,0.0038597679375319475
0.17235974192678707,0.07465962614031708,0.004095594809995103
0.1724563055159628,0.07408408166412336,0.00435078602858148
0.1725528691051385,0.07349348451361423,0.0046249539294420765
0.17264943269431424,0.0728881861938332,0.004917590610610744
0.17274599628348994,0.07226854781827981,0.005228070003574897
0.17284255987266567,0.07163493983087785,0.00555565085638558
0.17293912346184137,0.07098774171140215,0.005899480622042908
0.1730356870510171,0.07032734166459718,0.006258600246923075
0.17313225064019283,0.06965413629331325,0.006631949853673634
0.17322881422936853,0.06896853025602498,0.007018375310696595
0.17332537781854426,0.06827093590916226,0.007416635675504489
0.17342194140771997,0.06756177293474096,0.007825411491527321
0.1735185049968957,0.06684146795383974,0.008243313907183802
0.17361506858607142,0.066110454126523,0.008668894572227892
0.17371163217524713,0.06536917073886381,0.009100656249810758
0.17380819576442286,0.06461806277777415,0.009537064063841048
0.17390475935359856,0.0638575804944019,0.009976557280772892
0.1740013229427743,0.06308817895689364,0.010417561503795848
0.17409788653195002,0.062310317593374666,0.010858501136554791
0.17419445012112572,0.061524459726040544,0.011297811954123917
0.17429101371030145,0.06073107209728034,0.011733953602127976
0.17438757729947715,0.059930624388802145,0.012165421831771816
0.17448414088865288,0.05912358873474951,0.012590760270122923
0.17458070447782859,0.05831043922983817,0.013008571522110886
0.17467726806700432,0.05749165143354441,0.013417527404052266
0.17477383165618005,0.056667701871421707,0.013816378118363531
0.17487039524535575,0.055839067534615434,0.014203960195655159
0.17496695883453148,0.05500622537866343,0.014579203053302302
0.17506352242370718,0.054169651822681804,0.014941134048357953
0.1751600860128829,0.053329822250022564,0.015288881936513125
0.17525664960205864,0.05248721051149965,0.015621678686609646
0.17535321319123434,0.05164228843226839,0.015938859640765152
0.17544977678041007,0.05079552532342314,0.01623986205204301
0.17554634036958577,0.04994738749937735,0.016524222073350737
0.1756429039587615,0.04909833780205022,0.016791570311392945
0.17573946754793723,0.04824883513288235,0.017041626096625007
0.17583603113711294,0.04739933399364897,0.01727419065298355
0.17593259472628867,0.046550284037025914,0.017489139378532463
0.17602915831546437,0.04570212962782715,0.017686413469230586
0.1761257219046401,0.04485530941577005,0.017866011132054715
0.1762222854938158,0.04401025592062048,0.018027978640359668
0.17631884908299153,0.043167395130487514,0.018172401483467576
0.17641541267216726,0.042327146114014176,0.01829939585418076
0.17651197626134296,0.04148992064715106,0.01840910070264925
0.1766085398505187,0.04065612285514362,0.018501670563328115
0.1767051034396944,0.039826148870324804,0.018577269334582043
0.17680166702887012,0.039000386506226926,0.018636065158705813
0.17689823061804585,0.038179214948493856,0.018678226514965677
0.17699479420722156,0.03736300446299858,0.01870391960086395
0.1770913577963973,0.03655211612152495,0.018713307038490553
0.177187921385573,0.03574690154530567,0.018706547904776466
0.17728448497474872,0.03494770266665875,0.018683799047904185
0.17738104856392445,0.034154851508899534,0.018645217618185897
0.17747761215310015,0.03336866998465359,0.018590964711330937
0.17757417574227588,0.03258946971263086,0.01852120999602354
0.17767073933145158,0.031817551852881897,0.01843613717671316
0.1777673029206273,0.031053206960482478,0.01833595012687991
0.17786386650980301,0.030296714857557965,0.01822087951796715
0.17796043009897874,0.02954834452349693,0.01809118976460805
0.17805699368815447,0.02880835400316008,0.017947186107460624
0.17815355727733018,0.028076990332842937,0.017789221660473163
0.1782501208665059,0.027354489483703344,0.017617704259099733
0.1783466844556816,0.026641076322328802,0.017433102959156045
0.17844324804485734,0.025936964588068902,0.017235954051828643
0.17853981163403307,0.025242356886739106,0.01702686647795662
0.17863637522320877,0.02455744470024135,0.01680652654323192
0.1787329388123845,0.02388240841164347,0.01657570185462265
0.1788295024015602,0.023217417345215634,0.016335244416314138
0.17892606599073593,0.022562629820890776,0.016086092840223748
0.17902262957991166,0.02191819322261201,0.015829273641108563
0.17911919316908737,0.021284244079993877,0.015565901599150864
0.1792157567582631,0.020660908162709588,0.015297179183433245
0.1793123203474388,0.02004830058701452,0.015024395037894933
0.17940888393661453,0.019446525933782433,0.014748921537255688
0.17950544752579023,0.018855678377447317,0.014472211424252935
0.17960201111496596,0.01827584182521465,0.014195793541707212
0.1796985747041417,0.017707090065921836,0.013921267673794351
0.1797951382933174,0.017149486927908814,0.013650298510981028
0.17989170188249312,0.016603086445275514,0.013384608752866256
0.17998826547166882,0.016067933031901085,0.013125971363160401
0.18008482906084455,0.015544061662596179,0.012876200991737315
0.18018139265002028,0.015031498060789529,0.012637144580523788
0.18027795623919599,0.014530258892134537,0.012410671173324672
0.18037451982837172,0.014040351963449582,0.012198660954765825
0.18047108341754742,0.013561776426415716,0.012002993550577006
0.18056764700672315,0.013094522985464178,0.011825535630425345
0.18066421059589888,0.012638574109309849,0.011668127865444125
0.18076077418507458,0.012193904245598063,0.01153257130523194
0.1808573377742503,0.01176048003815509,0.01142061325315581
0.180953901363426,0.01133826054634953,0.011333932733856503
0.18105046495260174,0.010927197466091765,0.011274125662412192
0.18114702854177744,0.010527235352021758,0.011242689840092345
0.18124359213095317,0.01013831184045528,0.011241009916402107
0.1813401557201289,0.00976035787268444,0.011270342470502022
0.1814367193093046,0.00939329791824145,0.011331801376443825
0.18153328289848034,0.00903705019777003,0.01142634362535678
0.18162984648765604,0.008691526905166804,0.011554755783197729
0.18172641007683177,0.008356634428667133,0.011717641264469131
0.1818229736660075,0.008032273570595503,0.011915408600088393
0.1819195372551832,0.007718339765500954,0.012148260871168945
0.18201610084435893,0.007414723296432959,0.012416186469848595
0.18211266443353463,0.007121309509133905,0.01271895133364011
0.18220922802271036,0.006837979023942729,0.013056092781479721
0.1823057916118861,0.006564607945227219,0.013426915058231837
0.1824023552010618,0.006301068068184811,0.013830486670632157
0.18249891879023752,0.006047227082869645,0.014265639572331491
0.18259548237941323,0.005802948775324138,0.014730970229833398
0.18269204596858896,0.005568093225711205,0.015224842575655076
0.18278860955776466,0.0053425170033637275,0.01574539283099478
0.1828851731469404,0.005126073358680311,0.016290536158468028
0.18298173673611612,0.0049186124118187746,0.0168579750868296
0.18307830032529182,0.004719981338148236,0.01744520963468876
0.18317486391446755,0.004530024550438978,0.01804954904934928
0.18327142750364325,0.004348583877783107,0.018668125070203805
0.18336799109281898,0.0041754987412475925,0.019297906623419646
0.1834645546819947,0.004010606326277911,0.019935715855468484
0.18356111827117041,0.0038537417518782024,0.02057824541672322
0.18365768186034614,0.003704738236604092,0.021222076911876817
0.18375424544952185,0.0035634272614136027,0.02186370044026698
0.18385080903869758,0.003429638729429462,0.02249953515510926
0.1839473726278733,0.0033032011226716298,0.023125950774897708
0.184043936217049,0.003183941655826472,0.023739289981710862
0.18414049980622474,0.003071686427122413,0.024335891638797916
0.18423706339540044,0.00296626056638721,0.024912114752854767
0.18433362698457617,0.0028674883803639934,0.025464363094309075
0.18443019057375187,0.002775193495365563,0.025989110371549596
0.1845267541629276,0.0026891989973488926,0.026482925832607578
0.18462331775210333,0.002609327569490435,0.026942500140872207
0.18471988134127904,0.0025354016273442877,0.02736467134103765
0.18481644493045477,0.002467243451662882,0.027746450698915768
0.18491300851963047,0.002404675318958998,0.02808504816564432
0.1850095721088062,0.002347519629884728,0.028377897184956848
0.18510613569798193,0.00229559903549988,0.0286226785335202
0.18520269928715763,0.0022487365614991452,0.02881734286079016
0.18529926287633336,0.002206755730462033,0.02896013157822292
0.18539582646550906,0.0021694806821848855,0.02904959573962116
0.1854923900546848,0.002136736292149621,0.029084612556200033
0.18558895364386052,0.0021083482881764123,0.02906439920250032
0.18568551723303622,0.0020841433653021497,0.02898852359302738
0.18578208082221195,0.0020639492989195283,0.0288569118443992
0.18587864441138766,0.0020475950562049033,0.028669852183215827
0.18597520800056339,0.002034910905854269,0.02842799511488915
0.1860717715897391,0.002025728526141297,0.028132349731659467
0.18616833517891482,0.0020198811113014293,0.027784276107255187
0.18626489876809055,0.002017203476238507,0.02738547379890487
0.18636146235726625,0.002017532159544738,0.02693796655241564
0.18645802594644198,0.002020705524811824,0.026444083380462616
0.18655458953561768,0.002026563860208204,0.02590643625570731
0.1866511531247934,0.002034949476285654,0.02532789472677627
0.18674771671396914,0.002045706801970972,0.024711557824480528
0.18684428030314484,0.002058682478693467,0.024060723676340254
0.18694084389232057,0.002073725452585695,0.023378857288132524
0.18703740748149628,0.0020906870646945777,0.022669556980934785
0.187133971070672,0.002109421139125448,0.021936519990298532
0.18723053465984774,0.0021297840690404713,0.021183507740712513
0.18732709824902344,0.0021516349004232866,0.02041431130337512
0.18742366183819917,0.002174835413516807,0.019632717529071832
0.18752022542737487,0.002199250201834037,0.018842476321300188
0.1876167890165506,0.0022247467486390645,0.018047269478699956
0.1877133526057263,0.0022511955007882972,0.01725068149152363
0.18780991619490203,0.0022784699398191027,0.016456172625605482
0.18790647978407776,0.002306446650169069,0.015667054570613338
0.18800304337325346,0.0023350053844069466,0.014886468868785408
0.1880996069624292,0.0023640291253532873,0.014117368277562947
0.1881961705516049,0.002393404144967299,0.01336250115617175
0.18829273414078063,0.0024230200598768328,0.012624398903920232
0.18838929772995636,0.002452769883426053,0.011905366418452737
0.18848586131913206,0.002482550074118812,0.011207475486826268
0.1885824249083078,0.002512260580334705,0.010532560972616834
0.1886789884974835,0.0025418048811985247,0.009882219619358165
0.18877555208665922,0.0025710900234862106,0.009257811255535478
0.18887211567583495,0.002600026654453954,0.008660462159863245
0.18896867926501065,0.002628529050482732,0.008091070327937494
0.18906524285418638,0.002656515141435043,0.0075503123728682614
0.18916180644336208,0.002683906530625336,0.007038651792747137
0.18925837003253781,0.0027106285103167182,0.006556348346404332
0.18935493362171352,0.0027366100726592267,0.006103468294849291
0.18945149721088925,0.002761783915996599,0.0056798952880527135
0.18954806080006498,0.002786086446476005,0.005285341703884966
0.18964462438924068,0.0028094577749053417,0.00491936027657706
0.1897411879784164,0.0028318417088137805,0.004581355884412406
0.1898377515675921,0.002853185739679278,0.004270597398812438
0.18993431515676784,0.002873441025303237,0.00398622952799569
0.19003087874594357,0.002892562367318527,0.003727284616493722
0.19012744233511927,0.002910508183834204,0.0034926943857233176
0.190224005924295,0.002927240477230972,0.0032813016195527523
0.1903205695134707,0.00294272479713395,0.003091871811646569
0.19041713310264644,0.0029569301986041145,0.002923104797915942
0.19051369669182217,0.0029698291956024203,0.0027736463976585986
0.19061026028099787,0.0029813977097949314,0.002642100081192499
0.1907068238701736,0.0029916150147799797,0.002527038670636358
0.1908033874593493,0.0030004636758333442,0.002427016064859405
0.19089995104852503,0.0030079294852804546,0.0023405789606575694
0.19099651463770073,0.0030140013936180545,0.0022662785212418657
0.19109307822687646,0.0030186714365223405,0.0022026819215371076
0.1911896418160522,0.0030219346578911903,0.002148383679049716
0.1912862054052279,0.003023789029083472,0.002102016660521477
0.19138276899440362,0.003024235364529287,0.0020622626395222056
0.19147933258357933,0.003023277233896498,0.0020278622695891605
0.19157589617275506,0.0030209208710117136,0.0019976243323063295
0.19167245976193079,0.003017175079742657,0.001970434120370884
0.1917690233511065,0.0030120511370604936,0.00194526082240971
0.19186558694028222,0.003005562693508319,0.0019211637890035546
0.19196215052945792,0.0029977256713125096,0.0018972975776307618
0.19205871411863365,0.0029885581603792703,0.0018729156973873813
0.19215527770780938,0.0029780803124271533,0.0018473730014497906
0.19225184129698508,0.0029663142335107995,0.001820126705227958
0.1923484048861608,0.002953283875198062,0.0017907360397865168
0.19244496847533651,0.0029390149246649225,0.0017588605821096366
0.19254153206451224,0.00292353469397525,0.0017242573348596588
0.19263809565368795,0.002906872008818736,0.0016867766572321464
0.19273465924286368,0.002889057096974675,0.0016463571742147075
0.1928312228320394,0.0028701214767759766,0.0016030198130898192
0.1929277864212151,0.002850097845841747,0.0015568611326292965
0.19302435001039084,0.002829019970349067,0.0015080461215922804
0.19312091359956654,0.002806922575107822,0.0014568006485860539
0.19321747718874227,0.002783841234701498,0.0014034037450226914
0.193314040777918,0.0027598122659512883,0.001348179897026724
0.1934106043670937,0.0027348726219540358,0.0012914915111174846
0.19350716795626943,0.0027090597879390324,0.0012337317029412745
0.19360373154544513,0.0026824116791825292,0.0011753175390232851
0.19370029513462086,0.002654966541206468,0.0011166838393791736
0.1937968587237966,0.0026267628524841943,0.001058277624843525
0.1938934223129723,0.002597839229862322,0.001000553268176611
0.19398998590214803,0.0025682343368991847,0.0009439683834196543
0.19408654949132373,0.002537986795310063,0.0008889804645402063
0.19418311308049946,0.0025071350996951395,0.0008360442629970658
0.19427967666967516,0.0024757175357179046,0.0007856098751904511
0.1943762402588509,0.0024437721018870143,0.000738121495365598
0.19447280384802662,0.002411336435080904,0.0006940167777745406
0.19456936743720232,0.002378447739944891,0.000653726743884593
0.19466593102637805,0.0023451427222734873,0.0006176761660835538
0.19476249461555376,0.002311457526479837,0.0005862843583788272
0.19485905820472949,0.0022774276772381534,0.000559966306548172
0.19495562179390521,0.0022430880253740703,0.0005391340744557778
0.19505218538308092,0.0022084726980616596,0.0005241984290555604
0.19514874897225665,0.002173615053373636,0.0005155706331548014
0.19524531256143235,0.0021385476392176287,0.000513664361492036
0.19534187615060808,0.002103302156676568,0.0005188977012898803
0.1954384397397838,0.002067909427760844,0.0005316952024756979
0.1955350033289595,0.0020323993675639297,0.0005524899446488477
0.19563156691813524,0.001996800960802525,0.0005817255871935904
0.19572813050731094,0.001961142242709556,0.000619858365498387
0.19582469409648667,0.0019254502842354967,0.0006673589900467045
0.1959212576856624,0.0018897511815040755,0.0007247143964458051
0.1960178212748381,0.0018540700494548185,0.0007924292837111018
0.19611438486401384,0.0018184310195969388,0.000871027366007002
0.19621094845318954,0.0017828572417865713,0.0009610522504040127
0.19630751204236527,0.0017473708899324824,0.0010630678410269634
0.19640407563154097,0.001711993171524074,0.001177658159317085
0.1965006392207167,0.0016767443408687366,0.001305426462103764
0.19659720280989243,0.0016416437159173748,0.0014469935348440889
0.19669376639906813,0.0016067096985493748,0.0016029950377175538
0.19679032998824386,0.0015719597981832761,0.0017740777880639667
0.19688689357741956,0.0015374106585710253,0.0019608948745520587
0.1969834571665953,0.0015030780876309456,0.002164099516796101
0.19708002075577102,0.001468977090168579,0.0023843376089884767
0.19717658434494673,0.0014351219033304629,0.00262223891723064
0.19727314793412246,0.001401526034633628,0.0028784069370716716
0.19736971152329816,0.0013682023024087927,0.0031534074594315336
0.1974662751124739,0.001335162878496045,0.003447755938442749
0.19756283870164962,0.0013024193330270178,0.003761903802363645
0.19765940229082532,0.0012699826811284581,0.00409622389700178
0.19775596588000105,0.0012378634313816952,0.004450995298213471
0.19785252946917675,0.001206071635871314,0.004826387774201502
0.19794909305835248,0.0011746169416583434,0.005222446217568239
0.19804565664752818,0.0011435086435134607,0.0056390753995712774
0.19814222023670391,0.0011127557377470971,0.006076025423049484
0.19823878382587964,0.0010823669769772126,0.006532878264495456
0.19833534741505535,0.0010523509256748999,0.0070090357984777885
0.19843191100423108,0.001022716016333335,0.007503709688166857
0.19852847459340678,0.0009934706061078844,0.008015913503513638
0.1986250381825825,0.0009646230337790511,0.008544457393674685
0.19872160177175824,0.0009361816768922067,0.009087945592903135
0.19881816536093394,0.0009081550089355608,0.009644776980358762
0.19891472895010967,0.0008805516564180743,0.010213148845513647
0.19901129253928537,0.0008533804557170683,0.01079106393407655
0.1991078561284611,0.000826650509568002,0.011376340766962097
0.19920441971763683,0.0008003712430744523,0.011966627139657566
0.19930098330681253,0.0007745524591219258,0.01255941662437453
0.19939754689598826,0.0007492043930826204,0.013152067815907735
0.19949411048516397,0.0007243377667058525,0.013741825987296539
0.1995906740743397,0.0006999638410917249,0.014325846756329518
0.1996872376635154,0.0006760944686521458,0.014901221311328677
0.19978380125269113,0.0006527421439683799,0.015465002706864923
0.19988036484186686,0.0006299200534589283,0.01601423271866307
0.19997692843104256,0.0006076421237770814,0.016545968743047618
0.2000734920202183,0.0005859230688615973,0.017057310239963
0.200170055609394,0.0005647784355704051,0.01754542424932301
0.20026661919856972,0.00054422464782923,0.01800756955681664
0.20036318278774545,0.0005242790492340938,0.01844111914517025
0.20045974637692116,0.000504959944049408,0.018843580637591853
0.20055630996609689,0.00048628663654699887,0.01921261451841429
0.2006528735552726,0.00046827946863701943,0.019546049998387435
0.20074943714444832,0.0004509598557428656,0.01984189847493129
0.20084600073362405,0.00043435032087749874,0.020098364617399757
0.20094256432279975,0.00041847452687993275,0.020313855180625787
0.20103912791197548,0.000403357306774775,0.020486985713731445
0.20113569150115118,0.0003890246922187985,0.02061658538290369
0.2012322550903269,0.00037550394000181414,0.02070170016468112
0.2013288186795026,0.0003628235565701567,0.020741594689082096
0.20142538226867834,0.00035101332054288743,0.020735753019117942
0.20152194585785407,0.0003401043031925215,0.020683878645130983
0.20161850944702978,0.00033012888686244585,0.02058589394985975
0.2017150730362055,0.0003211207812943127,0.0204419393646839
0.2018116366253812,0.000313115037839514,0.020252372391201378
0.20190820021455694,0.0003061480615283124,0.02001776660762973
0.20200476380373267,0.00030025762097132363,0.019738910719301304
0.20210132739290837,0.00029548285606698543,0.019416807649725903
0.2021978909820841,0.0002918642834889849,0.019052673606403978
0.2022944545712598,0.00028944379992693487,0.01864793699672033
0.20239101816043553,0.00028826468305273985,0.0182042370166627
0.20248758174961126,0.0002883715901856182,0.017723421691227575
0.20258414533878696,0.0002898105546256714,0.01720754511226881
0.2026807089279627,0.0002926289796281332,0.01665886359878681
0.2027772725171384,0.0002968756299864988,0.016079830497263237
0.20287383610631413,0.0003026006211947594,0.015473089346066433
0.20297039969548983,0.0003098554061558363,0.014841465148075966
0.20306696328466556,0.0003186927594043949,0.014187953528772784
0.2031635268738413,0.0003291667588105171,0.013515707601969447
0.203260090463017,0.00034133276473054226,0.0128280224204144
0.20335665405219272,0.0003552473965717507,0.012128316951749056
0.20345321764136842,0.00037096850673590677,0.011420113589398017
0.20354978123054415,0.00038855515190887736,0.010707015280535553
0.20364634481971988,0.0004080675616617207,0.009992680426744905
0.20374290840889558,0.0004295671043311622,0.00928079578487841
0.20383947199807131,0.00045311625014675866,0.008575047663528651
0.20393603558724702,0.00047877853157464716,0.00787909177221501
0.20403259917642275,0.0005066185008481384,0.007196522133801405
0.20412916276559848,0.0005367016846579756,0.0065308395141835274
0.20422572635477418,0.0005690945359780209,0.005885419855334163
0.2043222899439499,0.0006038643830028054,0.00526348321746201
0.2044188535331256,0.0006410793751791839,0.004668063742495681
0.20451541712230134,0.0006808084263156328,0.004101981144093168
0.20461198071147704,0.0007231211547574846,0.0035678142089532695
0.20470854430065277,0.0007680878206211619,0.0030678767608461107
0.2048051078898285,0.0008157792600842577,0.002604196493377033
0.2049016714790042,0.0008662668167340901,0.0021784970213226526
0.20499823506817993,0.00091962226998345,0.0017921834350715176
0.20509479865735564,0.0009759177605658666,0.0014463315702804682
0.20519136224653137,0.0010352257131328298,0.0011416811275276905
0.2052879258357071,0.0010976187559781044,0.00087863269706428
0.2053844894248828,0.0011631696379240035,0.0006572486642535279
0.20548105301405853,0.0012319511424117191,0.00047725789463450854
0.20557761660323423,0.0013040359988423075,0.0003380640262527864
0.20567418019240996,0.0013794967912284213,0.00023875713328972488
0.2057707437815857,0.0014584058642182528,0.0001781284711279516
0.2058673073707614,0.001540835226568282,0.00015468797036921264
0.20596387095993712,0.0016268564521442843,0.00016668411706462316
