Tiempo_s,RR_s,RR_ms,Valido
0.5875,0.275,275.0,1
1.025,0.4375,437.5,1
1.4645833333333333,0.4395833333333333,439.5833333333333,1
1.9041666666666666,0.4395833333333333,439.5833333333333,1
2.35,0.44583333333333336,445.83333333333337,1
2.777083333333333,0.4270833333333333,427.0833333333333,1
3.20625,0.42916666666666664,429.16666666666663,1
3.6354166666666665,0.42916666666666664,429.16666666666663,1
4.06875,0.43333333333333335,433.33333333333337,1
4.495833333333334,0.4270833333333333,427.0833333333333,1
4.922916666666667,0.4270833333333333,427.0833333333333,1
5.352083333333334,0.42916666666666664,429.16666666666663,1
5.779166666666667,0.4270833333333333,427.0833333333333,1
6.210416666666666,0.43125,431.25,1
6.639583333333333,0.42916666666666664,429.16666666666663,1
7.064583333333333,0.425,425.0,1
7.485416666666667,0.42083333333333334,420.8333333333333,1
7.9125,0.4270833333333333,427.0833333333333,1
8.341666666666667,0.42916666666666664,429.16666666666663,1
8.7625,0.42083333333333334,420.8333333333333,1
9.189583333333333,0.4270833333333333,427.0833333333333,1
9.61875,0.42916666666666664,429.16666666666663,1
10.05,0.43125,431.25,1
10.477083333333333,0.4270833333333333,427.0833333333333,1
10.904166666666667,0.4270833333333333,427.0833333333333,1
11.333333333333334,0.42916666666666664,429.16666666666663,1
11.764583333333333,0.43125,431.25,1
12.189583333333333,0.425,425.0,1
12.616666666666667,0.4270833333333333,427.0833333333333,1
13.041666666666666,0.425,425.0,1
13.460416666666667,0.41875,418.75,1
13.879166666666666,0.41875,418.75,1
14.3,0.42083333333333334,420.8333333333333,1
14.722916666666666,0.42291666666666666,422.9166666666667,1
15.141666666666667,0.41875,418.75,1
15.560416666666667,0.41875,418.75,1
15.9875,0.4270833333333333,427.0833333333333,1
16.410416666666666,0.42291666666666666,422.9166666666667,1
16.83125,0.42083333333333334,420.8333333333333,1
17.260416666666668,0.42916666666666664,429.16666666666663,1
17.6875,0.4270833333333333,427.0833333333333,1
18.116666666666667,0.42916666666666664,429.16666666666663,1
18.545833333333334,0.42916666666666664,429.16666666666663,1
18.964583333333334,0.41875,418.75,1
19.385416666666668,0.42083333333333334,420.8333333333333,1
19.810416666666665,0.425,425.0,1
20.235416666666666,0.425,425.0,1
20.654166666666665,0.41875,418.75,1
21.075,0.42083333333333334,420.8333333333333,1
21.504166666666666,0.42916666666666664,429.16666666666663,1
21.933333333333334,0.42916666666666664,429.16666666666663,1
22.3625,0.42916666666666664,429.16666666666663,1
22.791666666666668,0.42916666666666664,429.16666666666663,1
23.225,0.43333333333333335,433.33333333333337,1
23.664583333333333,0.4395833333333333,439.5833333333333,1
24.108333333333334,0.44375,443.75,1
24.55,0.44166666666666665,441.66666666666663,1
24.995833333333334,0.44583333333333336,445.83333333333337,1
25.445833333333333,0.45,450.0,1
25.902083333333334,0.45625,456.25,1
26.354166666666668,0.45208333333333334,452.0833333333333,1
26.8,0.44583333333333336,445.83333333333337,1
27.245833333333334,0.44583333333333336,445.83333333333337,1
27.695833333333333,0.45,450.0,1
28.15,0.45416666666666666,454.1666666666667,1
28.59375,0.44375,443.75,1
29.041666666666668,0.4479166666666667,447.9166666666667,1
29.491666666666667,0.45,450.0,1
29.9375,0.44583333333333336,445.83333333333337,1
30.385416666666668,0.4479166666666667,447.9166666666667,1
30.835416666666667,0.45,450.0,1
31.285416666666666,0.45,450.0,1
31.7375,0.45208333333333334,452.0833333333333,1
32.18333333333333,0.44583333333333336,445.83333333333337,1
32.625,0.44166666666666665,441.66666666666663,1
33.06458333333333,0.4395833333333333,439.5833333333333,1
33.50833333333333,0.44375,443.75,1
33.95,0.44166666666666665,441.66666666666663,1
34.385416666666664,0.4354166666666667,435.4166666666667,1
34.825,0.4395833333333333,439.5833333333333,1
35.260416666666664,0.4354166666666667,435.4166666666667,1
35.69375,0.43333333333333335,433.33333333333337,1
36.12083333333333,0.4270833333333333,427.0833333333333,1
36.55,0.42916666666666664,429.16666666666663,1
36.975,0.425,425.0,1
37.40625,0.43125,431.25,1
37.833333333333336,0.4270833333333333,427.0833333333333,1
38.264583333333334,0.43125,431.25,1
38.7,0.4354166666666667,435.4166666666667,1
39.1375,0.4375,437.5,1
39.583333333333336,0.44583333333333336,445.83333333333337,1
40.03125,0.4479166666666667,447.9166666666667,1
40.479166666666664,0.4479166666666667,447.9166666666667,1
40.92916666666667,0.45,450.0,1
41.37916666666667,0.45,450.0,1
41.827083333333334,0.4479166666666667,447.9166666666667,1
42.28333333333333,0.45625,456.25,1
42.72708333333333,0.44375,443.75,1
43.170833333333334,0.44375,443.75,1
43.608333333333334,0.4375,437.5,1
44.052083333333336,0.44375,443.75,1
44.4875,0.4354166666666667,435.4166666666667,1
44.91458333333333,0.4270833333333333,427.0833333333333,1
45.34166666666667,0.4270833333333333,427.0833333333333,1
45.775,0.43333333333333335,433.33333333333337,1
46.208333333333336,0.43333333333333335,433.33333333333337,1
46.639583333333334,0.43125,431.25,1
47.072916666666664,0.43333333333333335,433.33333333333337,1
47.50833333333333,0.4354166666666667,435.4166666666667,1
48.40833333333333,0.9,900.0,0
48.860416666666666,0.45208333333333334,452.0833333333333,1
49.78541666666667,0.925,925.0,0
50.25625,0.4708333333333333,470.8333333333333,1
50.73125,0.475,475.0,1
51.2125,0.48125,481.25,1
51.69166666666667,0.4791666666666667,479.1666666666667,1
52.166666666666664,0.475,475.0,1
52.62916666666667,0.4625,462.5,1
53.110416666666666,0.48125,481.25,1
53.59166666666667,0.48125,481.25,1
54.53333333333333,0.9416666666666667,941.6666666666666,0
55.0,0.4666666666666667,466.6666666666667,1
55.47291666666667,0.47291666666666665,472.91666666666663,1
55.94166666666667,0.46875,468.75,1
56.4125,0.4708333333333333,470.8333333333333,1
56.88333333333333,0.4708333333333333,470.8333333333333,1
57.34583333333333,0.4625,462.5,1
57.80833333333333,0.4625,462.5,1
58.27291666666667,0.46458333333333335,464.58333333333337,1
58.739583333333336,0.4666666666666667,466.6666666666667,1
59.6625,0.9229166666666667,922.9166666666667,0
60.125,0.4625,462.5,1
60.59583333333333,0.4708333333333333,470.8333333333333,1
61.05833333333333,0.4625,462.5,1
61.525,0.4666666666666667,466.6666666666667,1
61.989583333333336,0.46458333333333335,464.58333333333337,1
62.452083333333334,0.4625,462.5,1
62.922916666666666,0.4708333333333333,470.8333333333333,1
63.395833333333336,0.47291666666666665,472.91666666666663,1
63.860416666666666,0.46458333333333335,464.58333333333337,1
64.32083333333334,0.46041666666666664,460.41666666666663,1
64.78541666666666,0.46458333333333335,464.58333333333337,1
65.25416666666666,0.46875,468.75,1
65.72083333333333,0.4666666666666667,466.6666666666667,1
66.19375,0.47291666666666665,472.91666666666663,1
66.68125,0.4875,487.5,1
67.17083333333333,0.4895833333333333,489.5833333333333,1
67.64791666666666,0.47708333333333336,477.08333333333337,1
68.12916666666666,0.48125,481.25,1
68.60625,0.47708333333333336,477.08333333333337,1
69.075,0.46875,468.75,1
69.55208333333333,0.47708333333333336,477.08333333333337,1
70.03958333333334,0.4875,487.5,1
70.53125,0.49166666666666664,491.66666666666663,1
71.03125,0.5,500.0,1
71.54166666666667,0.5104166666666666,510.41666666666663,1
72.03958333333334,0.4979166666666667,497.9166666666667,1
72.53541666666666,0.49583333333333335,495.83333333333337,1
73.02291666666666,0.4875,487.5,1
73.50625,0.48333333333333334,483.3333333333333,1
73.99375,0.4875,487.5,1
74.48125,0.4875,487.5,1
74.97291666666666,0.49166666666666664,491.66666666666663,1
75.98333333333333,1.0104166666666667,1010.4166666666667,0
76.49791666666667,0.5145833333333333,514.5833333333333,1
76.99791666666667,0.5,500.0,1
77.5,0.5020833333333333,502.0833333333333,1
77.99583333333334,0.49583333333333335,495.83333333333337,1
78.47708333333334,0.48125,481.25,1
78.9625,0.48541666666666666,485.4166666666667,1
79.44583333333334,0.48333333333333334,483.3333333333333,1
79.92083333333333,0.475,475.0,1
80.40416666666667,0.48333333333333334,483.3333333333333,1
80.89583333333333,0.49166666666666664,491.66666666666663,1
81.3875,0.49166666666666664,491.66666666666663,1
81.8875,0.5,500.0,1
82.38125,0.49375,493.75,1
82.8625,0.48125,481.25,1
83.35416666666667,0.49166666666666664,491.66666666666663,1
83.84166666666667,0.4875,487.5,1
84.31875,0.47708333333333336,477.08333333333337,1
84.8,0.48125,481.25,1
85.28125,0.48125,481.25,1
85.75625,0.475,475.0,1
86.24166666666666,0.48541666666666666,485.4166666666667,1
86.7375,0.49583333333333335,495.83333333333337,1
87.23333333333333,0.49583333333333335,495.83333333333337,1
87.7375,0.5041666666666667,504.16666666666663,1
88.23333333333333,0.49583333333333335,495.83333333333337,1
88.73125,0.4979166666666667,497.9166666666667,1
89.22708333333334,0.49583333333333335,495.83333333333337,1
89.71041666666666,0.48333333333333334,483.3333333333333,1
90.19791666666667,0.4875,487.5,1
90.68125,0.48333333333333334,483.3333333333333,1
91.15625,0.475,475.0,1
91.63541666666667,0.4791666666666667,479.1666666666667,1
92.12083333333334,0.48541666666666666,485.4166666666667,1
92.60625,0.48541666666666666,485.4166666666667,1
93.09583333333333,0.4895833333333333,489.5833333333333,1
93.59166666666667,0.49583333333333335,495.83333333333337,1
94.07708333333333,0.48541666666666666,485.4166666666667,1
94.56041666666667,0.48333333333333334,483.3333333333333,1
95.04166666666667,0.48125,481.25,1
95.51458333333333,0.47291666666666665,472.91666666666663,1
95.98125,0.4666666666666667,466.6666666666667,1
96.45208333333333,0.4708333333333333,470.8333333333333,1
96.92291666666667,0.4708333333333333,470.8333333333333,1
97.39375,0.4708333333333333,470.8333333333333,1
97.875,0.48125,481.25,1
98.36458333333333,0.4895833333333333,489.5833333333333,1
98.85625,0.49166666666666664,491.66666666666663,1
99.34791666666666,0.49166666666666664,491.66666666666663,1
99.8375,0.4895833333333333,489.5833333333333,1
100.31875,0.48125,481.25,1
100.79791666666667,0.4791666666666667,479.1666666666667,1
101.28125,0.48333333333333334,483.3333333333333,1
101.76458333333333,0.48333333333333334,483.3333333333333,1
102.24583333333334,0.48125,481.25,1
102.7375,0.49166666666666664,491.66666666666663,1
103.23541666666667,0.4979166666666667,497.9166666666667,1
103.7375,0.5020833333333333,502.0833333333333,1
104.24375,0.50625,506.25,1
104.73333333333333,0.4895833333333333,489.5833333333333,1
105.23958333333333,0.50625,506.25,1
105.74583333333334,0.50625,506.25,1
106.25625,0.5104166666666666,510.41666666666663,1
106.76041666666667,0.5041666666666667,504.16666666666663,1
107.25625,0.49583333333333335,495.83333333333337,1
107.75833333333334,0.5020833333333333,502.0833333333333,1
108.25208333333333,0.49375,493.75,1
108.75416666666666,0.5020833333333333,502.0833333333333,1
109.26041666666667,0.50625,506.25,1
109.76875,0.5083333333333333,508.3333333333333,1
110.28541666666666,0.5166666666666667,516.6666666666667,1
110.79166666666667,0.50625,506.25,1
111.3,0.5083333333333333,508.3333333333333,1
111.79375,0.49375,493.75,1
112.28958333333334,0.49583333333333335,495.83333333333337,1
112.775,0.48541666666666666,485.4166666666667,1
113.24583333333334,0.4708333333333333,470.8333333333333,1
113.72083333333333,0.475,475.0,1
114.18958333333333,0.46875,468.75,1
114.66041666666666,0.4708333333333333,470.8333333333333,1
115.12083333333334,0.46041666666666664,460.41666666666663,1
115.59583333333333,0.475,475.0,1
116.08333333333333,0.4875,487.5,1
116.57291666666667,0.4895833333333333,489.5833333333333,1
117.55,0.9770833333333333,977.0833333333333,0
118.02916666666667,0.4791666666666667,479.1666666666667,1
118.50833333333334,0.4791666666666667,479.1666666666667,1
118.98958333333333,0.48125,481.25,1
119.46875,0.4791666666666667,479.1666666666667,1
119.93958333333333,0.4708333333333333,470.8333333333333,1
120.41875,0.4791666666666667,479.1666666666667,1
120.90625,0.4875,487.5,1
121.39375,0.4875,487.5,1
121.88958333333333,0.49583333333333335,495.83333333333337,1
122.38333333333334,0.49375,493.75,1
122.87083333333334,0.4875,487.5,1
123.36458333333333,0.49375,493.75,1
123.85416666666667,0.4895833333333333,489.5833333333333,1
124.34791666666666,0.49375,493.75,1
124.85416666666667,0.50625,506.25,1
125.87083333333334,1.0166666666666666,1016.6666666666666,0
126.86875,0.9979166666666667,997.9166666666666,0
127.375,0.50625,506.25,1
127.87291666666667,0.4979166666666667,497.9166666666667,1
128.375,0.5020833333333333,502.0833333333333,1
128.86875,0.49375,493.75,1
129.36875,0.5,500.0,1
129.87083333333334,0.5020833333333333,502.0833333333333,1
130.36875,0.4979166666666667,497.9166666666667,1
130.88333333333333,0.5145833333333333,514.5833333333333,1
131.39791666666667,0.5145833333333333,514.5833333333333,1
131.925,0.5270833333333333,527.0833333333334,1
132.44583333333333,0.5208333333333334,520.8333333333334,1
132.96875,0.5229166666666667,522.9166666666667,1
133.475,0.50625,506.25,1
133.98541666666668,0.5104166666666666,510.41666666666663,1
134.48541666666668,0.5,500.0,1
134.98541666666668,0.5,500.0,1
135.48958333333334,0.5041666666666667,504.16666666666663,1
135.98958333333334,0.5,500.0,1
136.50833333333333,0.51875,518.75,1
137.55416666666667,1.0458333333333334,1045.8333333333335,0
138.06666666666666,0.5125,512.5,1
138.58333333333334,0.5166666666666667,516.6666666666667,1
139.0875,0.5041666666666667,504.16666666666663,1
139.59791666666666,0.5104166666666666,510.41666666666663,1
140.10833333333332,0.5104166666666666,510.41666666666663,1
140.625,0.5166666666666667,516.6666666666667,1
141.14166666666668,0.5166666666666667,516.6666666666667,1
141.65833333333333,0.5166666666666667,516.6666666666667,1
142.17708333333334,0.51875,518.75,1
142.68333333333334,0.50625,506.25,1
143.2,0.5166666666666667,516.6666666666667,1
143.70625,0.50625,506.25,1
144.22083333333333,0.5145833333333333,514.5833333333333,1
144.72291666666666,0.5020833333333333,502.0833333333333,1
145.2375,0.5145833333333333,514.5833333333333,1
145.74583333333334,0.5083333333333333,508.3333333333333,1
146.25833333333333,0.5125,512.5,1
147.27916666666667,1.0208333333333333,1020.8333333333333,0
148.29791666666668,1.01875,1018.75,0
148.81666666666666,0.51875,518.75,1
149.32916666666668,0.5125,512.5,1
149.84583333333333,0.5166666666666667,516.6666666666667,1
150.35,0.5041666666666667,504.16666666666663,1
150.86041666666668,0.5104166666666666,510.41666666666663,1
151.36041666666668,0.5,500.0,1
151.86041666666668,0.5,500.0,1
152.36458333333334,0.5041666666666667,504.16666666666663,1
152.86666666666667,0.5020833333333333,502.0833333333333,1
153.38333333333333,0.5166666666666667,516.6666666666667,1
153.89791666666667,0.5145833333333333,514.5833333333333,1
154.41875,0.5208333333333334,520.8333333333334,1
154.92916666666667,0.5104166666666666,510.41666666666663,1
155.44375,0.5145833333333333,514.5833333333333,1
155.95208333333332,0.5083333333333333,508.3333333333333,1
156.47291666666666,0.5208333333333334,520.8333333333334,1
156.99166666666667,0.51875,518.75,1
157.51458333333332,0.5229166666666667,522.9166666666667,1
158.02708333333334,0.5125,512.5,1
158.5375,0.5104166666666666,510.41666666666663,1
159.04583333333332,0.5083333333333333,508.3333333333333,1
159.55,0.5041666666666667,504.16666666666663,1
160.06875,0.51875,518.75,1
160.58958333333334,0.5208333333333334,520.8333333333334,1
161.12291666666667,0.5333333333333333,533.3333333333334,1
161.65416666666667,0.53125,531.25,1
162.18541666666667,0.53125,531.25,1
162.71666666666667,0.53125,531.25,1
163.24583333333334,0.5291666666666667,529.1666666666666,1
163.78958333333333,0.54375,543.75,1
164.32291666666666,0.5333333333333333,533.3333333333334,1
164.86458333333334,0.5416666666666666,541.6666666666666,1
165.39166666666668,0.5270833333333333,527.0833333333334,1
165.925,0.5333333333333333,533.3333333333334,1
166.45416666666668,0.5291666666666667,529.1666666666666,1
166.98958333333334,0.5354166666666667,535.4166666666666,1
167.52291666666667,0.5333333333333333,533.3333333333334,1
168.04583333333332,0.5229166666666667,522.9166666666667,1
168.57291666666666,0.5270833333333333,527.0833333333334,1
169.08958333333334,0.5166666666666667,516.6666666666667,1
169.61666666666667,0.5270833333333333,527.0833333333334,1
170.67708333333334,1.0604166666666666,1060.4166666666665,0
171.20625,0.5291666666666667,529.1666666666666,1
171.73958333333334,0.5333333333333333,533.3333333333334,1
172.26041666666666,0.5208333333333334,520.8333333333334,1
172.78958333333333,0.5291666666666667,529.1666666666666,1
173.31041666666667,0.5208333333333334,520.8333333333334,1
173.84375,0.5333333333333333,533.3333333333334,1
174.89791666666667,1.0541666666666667,1054.1666666666667,0
175.42083333333332,0.5229166666666667,522.9166666666667,1
175.9375,0.5166666666666667,516.6666666666667,1
176.46041666666667,0.5229166666666667,522.9166666666667,1
176.98125,0.5208333333333334,520.8333333333334,1
177.5,0.51875,518.75,1
178.01666666666668,0.5166666666666667,516.6666666666667,1
178.525,0.5083333333333333,508.3333333333333,1
179.03958333333333,0.5145833333333333,514.5833333333333,1
180.0625,1.0229166666666667,1022.9166666666667,0
